TITLE	
DATA TYPE	
ORIGIN	JASCO
OWNER	
DATE	22/04/20
TIME	10:12:01
SPECTROMETER/DATA SYSTEM	
RESOLUTION	
DELTAX	0.5
XUNITS	SEC
YUNITS	INTENSITY
FIRSTX	0.0000
LASTX	2652.5000
NPOINTS	5306
FIRSTY	278.50656
MAXY	278.55527
MINY	-115.64928
XYDATA
0.0000	278.507
0.5000	278.358
1.0000	278.422
1.5000	278.44
2.0000	278.465
2.5000	278.555
3.0000	278.51
3.5000	278.45
4.0000	278.437
4.5000	278.436
5.0000	278.347
5.5000	278.432
6.0000	278.427
6.5000	278.414
7.0000	278.481
7.5000	278.376
8.0000	278.362
8.5000	278.297
9.0000	278.287
9.5000	278.307
10.0000	278.289
10.5000	278.29
11.0000	278.251
11.5000	278.256
12.0000	278.256
12.5000	278.21
13.0000	278.234
13.5000	278.119
14.0000	278.033
14.5000	278.122
15.0000	278.045
15.5000	278.083
16.0000	278.162
16.5000	278.093
17.0000	278.125
17.5000	278.127
18.0000	272.476
18.5000	258.898
19.0000	237.792
19.5000	173.658
20.0000	-115.649
20.5000	-46.6888
21.0000	-34.1299
21.5000	-30.9052
22.0000	-29.4789
22.5000	-28.6229
23.0000	-27.9433
23.5000	-27.5595
24.0000	-27.1051
24.5000	-26.6381
25.0000	90.3202
25.5000	79.7335
26.0000	70.6925
26.5000	67.0081
27.0000	58.2471
27.5000	53.8272
28.0000	53.5817
28.5000	53.4423
29.0000	53.3868
29.5000	53.352
30.0000	53.3156
30.5000	53.309
31.0000	53.2898
31.5000	53.2823
32.0000	53.282
32.5000	53.2966
33.0000	53.3177
33.5000	53.3337
34.0000	53.3392
34.5000	53.3491
35.0000	53.3632
35.5000	53.3979
36.0000	53.4451
36.5000	53.474
37.0000	53.4896
37.5000	53.5416
38.0000	53.566
38.5000	53.5713
39.0000	53.6085
39.5000	53.5909
40.0000	53.5999
40.5000	53.6403
41.0000	53.6698
41.5000	53.6717
42.0000	53.6825
42.5000	53.6893
43.0000	53.6939
43.5000	53.715
44.0000	53.7398
44.5000	53.7891
45.0000	53.8134
45.5000	53.8398
46.0000	53.9072
46.5000	53.8866
47.0000	53.9011
47.5000	53.8996
48.0000	53.8868
48.5000	53.9265
49.0000	53.9585
49.5000	53.979
50.0000	53.9615
50.5000	53.9765
51.0000	53.9507
51.5000	53.9908
52.0000	54.0186
52.5000	54.0461
53.0000	54.08
53.5000	54.0713
54.0000	54.0911
54.5000	54.0899
55.0000	54.1003
55.5000	54.1513
56.0000	54.1671
56.5000	54.1697
57.0000	54.2093
57.5000	54.2075
58.0000	54.2124
58.5000	54.2373
59.0000	54.2696
59.5000	54.3076
60.0000	54.3452
60.5000	54.3863
61.0000	54.4031
61.5000	54.4391
62.0000	54.4619
62.5000	54.4773
63.0000	54.4755
63.5000	54.4697
64.0000	54.5122
64.5000	54.5377
65.0000	54.5569
65.5000	54.5795
66.0000	54.5706
66.5000	54.561
67.0000	54.587
67.5000	54.6261
68.0000	54.6646
68.5000	54.7132
69.0000	54.7204
69.5000	54.7262
70.0000	54.7259
70.5000	54.7238
71.0000	54.7752
71.5000	54.7815
72.0000	54.7818
72.5000	54.7928
73.0000	54.7781
73.5000	54.7875
74.0000	54.8606
74.5000	54.8977
75.0000	54.9145
75.5000	54.914
76.0000	54.8889
76.5000	54.924
77.0000	54.9328
77.5000	54.9366
78.0000	54.9715
78.5000	54.9798
79.0000	55.0112
79.5000	55.0602
80.0000	55.062
80.5000	55.064
81.0000	55.0616
81.5000	55.0849
82.0000	55.1007
82.5000	55.1079
83.0000	55.1616
83.5000	55.2034
84.0000	55.2253
84.5000	55.2583
85.0000	55.2528
85.5000	55.2568
86.0000	55.2598
86.5000	55.2923
87.0000	55.3433
87.5000	55.3216
88.0000	55.3551
88.5000	55.3593
89.0000	55.3409
89.5000	55.3742
90.0000	55.4009
90.5000	55.418
91.0000	55.4376
91.5000	55.4773
92.0000	55.4872
92.5000	55.498
93.0000	55.5189
93.5000	55.5271
94.0000	55.571
94.5000	55.5983
95.0000	55.6285
95.5000	55.644
96.0000	55.6486
96.5000	55.6902
97.0000	55.7087
97.5000	55.7235
98.0000	55.7226
98.5000	55.6991
99.0000	55.7273
99.5000	55.7266
100.0000	55.7496
100.5000	55.777
101.0000	55.7624
101.5000	55.8101
102.0000	55.8532
102.5000	55.8632
103.0000	55.9083
103.5000	55.931
104.0000	55.956
104.5000	55.9405
105.0000	55.9473
105.5000	55.9304
106.0000	55.9131
106.5000	55.9857
107.0000	55.9995
107.5000	56.0281
108.0000	56.0254
108.5000	56.0444
109.0000	56.0604
109.5000	56.0779
110.0000	56.106
110.5000	56.1142
111.0000	56.1301
111.5000	56.1442
112.0000	56.1623
112.5000	56.1502
113.0000	56.1814
113.5000	56.1734
114.0000	56.1788
114.5000	56.2102
115.0000	56.1984
115.5000	56.2401
116.0000	56.2896
116.5000	56.3144
117.0000	56.3578
117.5000	56.391
118.0000	56.3812
118.5000	56.4138
119.0000	56.4399
119.5000	56.4347
120.0000	56.4636
120.5000	56.4688
121.0000	56.485
121.5000	56.5283
122.0000	56.5341
122.5000	56.5424
123.0000	56.5502
123.5000	56.5721
124.0000	56.6218
124.5000	56.639
125.0000	56.6552
125.5000	56.654
126.0000	56.6413
126.5000	56.6635
127.0000	56.6646
127.5000	56.685
128.0000	56.7144
128.5000	56.7549
129.0000	56.7798
129.5000	56.7932
130.0000	56.8547
130.5000	56.8349
131.0000	56.8467
131.5000	56.8714
132.0000	56.8215
132.5000	56.8537
133.0000	56.8712
133.5000	56.8808
134.0000	56.9155
134.5000	56.9382
135.0000	56.9429
135.5000	56.9672
136.0000	56.974
136.5000	56.9979
137.0000	57.0682
137.5000	57.074
138.0000	57.1193
138.5000	57.1342
139.0000	57.1385
139.5000	57.1927
140.0000	57.2239
140.5000	57.2355
141.0000	57.2617
141.5000	57.2631
142.0000	57.2527
142.5000	57.2955
143.0000	57.2836
143.5000	57.2689
144.0000	57.28
144.5000	57.2717
145.0000	57.3089
145.5000	57.3567
146.0000	57.387
146.5000	57.4131
147.0000	57.4223
147.5000	57.4254
148.0000	57.4496
148.5000	57.4732
149.0000	57.4788
149.5000	57.4908
150.0000	57.5308
150.5000	57.5279
151.0000	57.5478
151.5000	57.5746
152.0000	57.5647
152.5000	57.6067
153.0000	57.6273
153.5000	57.6729
154.0000	57.6973
154.5000	57.695
155.0000	57.7113
155.5000	57.713
156.0000	57.7118
156.5000	57.7453
157.0000	57.7928
157.5000	57.8271
158.0000	57.8549
158.5000	57.8787
159.0000	57.8796
159.5000	57.8762
160.0000	57.9027
160.5000	57.8888
161.0000	57.915
161.5000	57.9277
162.0000	57.9328
162.5000	57.9528
163.0000	57.9634
163.5000	57.971
164.0000	58.0021
164.5000	58.035
165.0000	58.0441
165.5000	58.0959
166.0000	58.1099
166.5000	58.1134
167.0000	58.1273
167.5000	58.1229
168.0000	58.1199
168.5000	58.1423
169.0000	58.1758
169.5000	58.189
170.0000	58.2401
170.5000	58.2584
171.0000	58.2549
171.5000	58.3036
172.0000	58.32
172.5000	58.3326
173.0000	58.3693
173.5000	58.3778
174.0000	58.3782
174.5000	58.3927
175.0000	58.4212
175.5000	58.4127
176.0000	58.4217
176.5000	58.4467
177.0000	58.4344
177.5000	58.4494
178.0000	58.4758
178.5000	58.4932
179.0000	58.5097
179.5000	58.5476
180.0000	58.5936
180.5000	58.6165
181.0000	58.6669
181.5000	58.6617
182.0000	58.6276
182.5000	58.633
183.0000	58.6167
183.5000	58.6342
184.0000	58.6762
184.5000	58.7145
185.0000	58.7256
185.5000	58.7596
186.0000	58.7715
186.5000	58.7736
187.0000	58.7989
187.5000	58.8017
188.0000	58.8292
188.5000	58.8472
189.0000	58.8561
189.5000	58.8883
190.0000	58.9217
190.5000	58.9313
191.0000	58.9627
191.5000	58.9531
192.0000	58.9511
192.5000	58.9924
193.0000	59.0136
193.5000	59.0458
194.0000	59.0805
194.5000	59.1055
195.0000	59.1196
195.5000	59.1208
196.0000	59.0942
196.5000	59.056
197.0000	59.0833
197.5000	59.1511
198.0000	59.2001
198.5000	59.2769
199.0000	59.2961
199.5000	59.2822
200.0000	59.2688
200.5000	59.293
201.0000	59.2639
201.5000	59.312
202.0000	59.3444
202.5000	59.3129
203.0000	59.3436
203.5000	59.3216
204.0000	59.3516
204.5000	59.3685
205.0000	59.4006
205.5000	59.4369
206.0000	59.459
206.5000	59.508
207.0000	59.5281
207.5000	59.5398
208.0000	59.5573
208.5000	59.5645
209.0000	59.5522
209.5000	59.5753
210.0000	59.5957
210.5000	59.6029
211.0000	59.6763
211.5000	59.7087
212.0000	59.6881
212.5000	59.7115
213.0000	59.6983
213.5000	59.7359
214.0000	59.756
214.5000	59.7574
215.0000	59.795
215.5000	59.7495
216.0000	59.7906
216.5000	59.8257
217.0000	59.8388
217.5000	59.8735
218.0000	59.8705
218.5000	59.8581
219.0000	59.8793
219.5000	59.8824
220.0000	59.8993
220.5000	59.9293
221.0000	59.9252
221.5000	59.9423
222.0000	59.9498
222.5000	59.9537
223.0000	59.9586
223.5000	59.9734
224.0000	59.9986
224.5000	60.0308
225.0000	60.0648
225.5000	60.1015
226.0000	60.1236
226.5000	60.1269
227.0000	60.1247
227.5000	60.1383
228.0000	60.1523
228.5000	60.179
229.0000	60.1982
229.5000	60.1928
230.0000	60.2137
230.5000	60.2427
231.0000	60.2479
231.5000	60.2775
232.0000	60.2837
232.5000	60.2955
233.0000	60.2886
233.5000	60.3273
234.0000	60.365
234.5000	60.378
235.0000	60.4143
235.5000	60.3998
236.0000	60.4081
236.5000	60.4314
237.0000	60.4863
237.5000	60.5302
238.0000	60.5475
238.5000	60.5576
239.0000	60.5426
239.5000	60.5521
240.0000	60.5655
240.5000	60.5858
241.0000	60.6098
241.5000	60.624
242.0000	60.6182
242.5000	60.6059
243.0000	60.6179
243.5000	60.6197
244.0000	60.6634
244.5000	60.6968
245.0000	60.7015
245.5000	60.7128
246.0000	60.7365
246.5000	60.7358
247.0000	60.7765
247.5000	60.781
248.0000	60.7745
248.5000	60.8064
249.0000	60.8312
249.5000	60.8332
250.0000	60.8692
250.5000	60.8676
251.0000	60.8593
251.5000	60.9132
252.0000	60.9006
252.5000	60.9269
253.0000	60.9327
253.5000	60.9301
254.0000	60.9502
254.5000	60.9684
255.0000	60.9861
255.5000	61.0084
256.0000	61.0515
256.5000	61.0538
257.0000	61.0754
257.5000	61.1083
258.0000	61.1052
258.5000	61.1646
259.0000	61.157
259.5000	61.1879
260.0000	61.2036
260.5000	61.2015
261.0000	61.2717
261.5000	61.2671
262.0000	61.2525
262.5000	61.2567
263.0000	61.2358
263.5000	61.2604
264.0000	61.3014
264.5000	61.2949
265.0000	61.3074
265.5000	61.3063
266.0000	61.3026
266.5000	61.3571
267.0000	61.4177
267.5000	61.4306
268.0000	61.5009
268.5000	61.5027
269.0000	61.46
269.5000	61.5011
270.0000	61.5068
270.5000	61.5067
271.0000	61.5282
271.5000	61.5316
272.0000	61.5205
272.5000	61.5343
273.0000	61.5608
273.5000	61.557
274.0000	61.5847
274.5000	61.586
275.0000	61.6087
275.5000	61.6214
276.0000	61.6025
276.5000	61.6491
277.0000	61.6477
277.5000	61.6576
278.0000	61.6822
278.5000	61.7139
279.0000	61.7204
279.5000	61.749
280.0000	61.7969
280.5000	61.8243
281.0000	61.853
281.5000	61.8632
282.0000	61.8473
282.5000	61.8221
283.0000	61.8074
283.5000	61.8139
284.0000	61.8102
284.5000	61.8358
285.0000	61.8935
285.5000	61.9103
286.0000	61.931
286.5000	61.9418
287.0000	61.9548
287.5000	61.972
288.0000	61.9915
288.5000	62.0131
289.0000	62.0058
289.5000	62.0173
290.0000	62.0305
290.5000	62.0433
291.0000	62.046
291.5000	62.0564
292.0000	62.0901
292.5000	62.0991
293.0000	62.1354
293.5000	62.158
294.0000	62.1805
294.5000	62.2047
295.0000	62.2139
295.5000	62.212
296.0000	62.2234
296.5000	62.2488
297.0000	62.2775
297.5000	62.3198
298.0000	62.2963
298.5000	62.2706
299.0000	62.2973
299.5000	62.2975
300.0000	62.3473
300.5000	62.4114
301.0000	62.4295
301.5000	62.4551
302.0000	62.4745
302.5000	62.466
303.0000	62.458
303.5000	62.4848
304.0000	62.514
304.5000	62.5415
305.0000	62.5488
305.5000	62.5334
306.0000	62.522
306.5000	62.5447
307.0000	62.589
307.5000	62.6168
308.0000	62.6279
308.5000	62.6313
309.0000	62.6496
309.5000	62.6683
310.0000	62.6733
310.5000	62.6778
311.0000	62.6688
311.5000	62.6782
312.0000	62.7688
312.5000	62.7734
313.0000	62.7803
313.5000	62.8056
314.0000	62.7855
314.5000	62.8249
315.0000	62.8354
315.5000	62.8336
316.0000	62.8281
316.5000	62.8247
317.0000	62.8578
317.5000	62.8772
318.0000	62.9001
318.5000	62.9145
319.0000	62.9022
319.5000	62.9031
320.0000	62.9019
320.5000	62.9261
321.0000	62.967
321.5000	63.0138
322.0000	63.0258
322.5000	63.0305
323.0000	63.0387
323.5000	63.0187
324.0000	63.0341
324.5000	63.0598
325.0000	63.0841
325.5000	63.1145
326.0000	63.1648
326.5000	63.169
327.0000	63.1692
327.5000	63.2051
328.0000	63.1719
328.5000	63.1968
329.0000	63.2463
329.5000	63.259
330.0000	63.301
330.5000	63.3199
331.0000	63.3152
331.5000	63.3095
332.0000	63.3326
332.5000	63.3431
333.0000	63.3551
333.5000	63.3513
334.0000	63.3421
334.5000	63.3367
335.0000	63.3404
335.5000	63.3969
336.0000	63.3984
336.5000	63.4093
337.0000	63.4353
337.5000	63.4279
338.0000	63.4752
338.5000	63.512
339.0000	63.5099
339.5000	63.5167
340.0000	63.5252
340.5000	63.5504
341.0000	63.5629
341.5000	63.6009
342.0000	63.6028
342.5000	63.5874
343.0000	63.6254
343.5000	63.6448
344.0000	63.6552
344.5000	63.6826
345.0000	63.7031
345.5000	63.6954
346.0000	63.7025
346.5000	63.7187
347.0000	63.708
347.5000	63.7229
348.0000	63.7601
348.5000	63.754
349.0000	63.7746
349.5000	63.7871
350.0000	63.7891
350.5000	63.8139
351.0000	63.8362
351.5000	63.8651
352.0000	63.8868
352.5000	63.9192
353.0000	63.9179
353.5000	63.9176
354.0000	63.9445
354.5000	63.9446
355.0000	63.9814
355.5000	64.0035
356.0000	64.01
356.5000	64.0077
357.0000	64.0216
357.5000	64.0444
358.0000	64.026
358.5000	64.0634
359.0000	64.0999
359.5000	64.0664
360.0000	64.0982
360.5000	64.102
361.0000	64.0664
361.5000	64.0973
362.0000	64.1085
362.5000	64.1596
363.0000	64.1895
363.5000	64.2279
364.0000	64.2349
364.5000	64.2019
365.0000	64.2254
365.5000	64.231
366.0000	64.2167
366.5000	64.2233
367.0000	64.2672
367.5000	64.2575
368.0000	64.3016
368.5000	64.3766
369.0000	64.3521
369.5000	64.3715
370.0000	64.3905
370.5000	64.3823
371.0000	64.3766
371.5000	64.3908
372.0000	64.4158
372.5000	64.4277
373.0000	64.4324
373.5000	64.4657
374.0000	64.4485
374.5000	64.4531
375.0000	64.5082
375.5000	64.526
376.0000	64.5802
376.5000	64.5839
377.0000	64.5827
377.5000	64.6005
378.0000	64.5901
378.5000	64.6141
379.0000	64.6298
379.5000	64.6323
380.0000	64.6611
380.5000	64.6709
381.0000	64.701
381.5000	64.7261
382.0000	64.7312
382.5000	64.7443
383.0000	64.771
383.5000	64.7689
384.0000	64.8019
384.5000	64.8052
385.0000	64.7958
385.5000	64.8276
386.0000	64.811
386.5000	64.8365
387.0000	64.8204
387.5000	64.8117
388.0000	64.8504
388.5000	64.859
389.0000	64.8991
389.5000	64.9607
390.0000	64.9593
390.5000	64.9941
391.0000	65.0049
391.5000	64.98
392.0000	64.9989
392.5000	64.9873
393.0000	64.9906
393.5000	65.0138
394.0000	65.0349
394.5000	65.0466
395.0000	65.0592
395.5000	65.0709
396.0000	65.0827
396.5000	65.0747
397.0000	65.0854
397.5000	65.1083
398.0000	65.0918
398.5000	65.1339
399.0000	65.1532
399.5000	65.1926
400.0000	65.2419
400.5000	65.2176
401.0000	65.2457
401.5000	65.2349
402.0000	65.2363
402.5000	65.2642
403.0000	65.2917
403.5000	65.2951
404.0000	65.3319
404.5000	65.3854
405.0000	65.3832
405.5000	65.3857
406.0000	65.4046
406.5000	65.389
407.0000	65.3864
407.5000	65.4104
408.0000	65.4305
408.5000	65.4514
409.0000	65.4788
409.5000	65.5063
410.0000	65.5326
410.5000	65.5632
411.0000	65.5817
411.5000	65.592
412.0000	65.5721
412.5000	65.5661
413.0000	65.5708
413.5000	65.5698
414.0000	65.5828
414.5000	65.5923
415.0000	65.6295
415.5000	65.6463
416.0000	65.6696
416.5000	65.6866
417.0000	65.6947
417.5000	65.7153
418.0000	65.7024
418.5000	65.7182
419.0000	65.7441
419.5000	65.7572
420.0000	65.7895
420.5000	65.8123
421.0000	65.8224
421.5000	65.8297
422.0000	65.853
422.5000	65.8651
423.0000	65.9038
423.5000	65.9239
424.0000	65.9415
424.5000	65.9368
425.0000	65.9295
425.5000	65.9515
426.0000	65.9421
426.5000	65.968
427.0000	65.9769
427.5000	65.9953
428.0000	66.0258
428.5000	66.0578
429.0000	66.0685
429.5000	66.0912
430.0000	66.1174
430.5000	66.1154
431.0000	66.1383
431.5000	66.1438
432.0000	66.1457
432.5000	66.171
433.0000	66.1672
433.5000	66.1625
434.0000	66.169
434.5000	66.1634
435.0000	66.2038
435.5000	66.2471
436.0000	66.2548
436.5000	66.3266
437.0000	66.3111
437.5000	66.2988
438.0000	66.3494
438.5000	66.3357
439.0000	66.3572
439.5000	66.3972
440.0000	66.4022
440.5000	66.4114
441.0000	66.4323
441.5000	66.4456
442.0000	66.4492
442.5000	66.4721
443.0000	66.5
443.5000	66.5154
444.0000	66.5151
444.5000	66.5488
445.0000	66.5691
445.5000	66.586
446.0000	66.5995
446.5000	66.6
447.0000	66.6024
447.5000	66.5951
448.0000	66.6581
448.5000	66.6864
449.0000	66.6853
449.5000	66.7314
450.0000	66.7319
450.5000	66.753
451.0000	66.7885
451.5000	66.766
452.0000	66.7711
452.5000	66.7873
453.0000	66.7863
453.5000	66.8299
454.0000	66.8331
454.5000	66.8255
455.0000	66.8756
455.5000	66.9058
456.0000	66.9207
456.5000	66.9261
457.0000	66.9096
457.5000	66.9268
458.0000	66.965
458.5000	66.9616
459.0000	66.9749
459.5000	66.9729
460.0000	66.9989
460.5000	67.0457
461.0000	67.0757
461.5000	67.0991
462.0000	67.126
462.5000	67.1577
463.0000	67.1459
463.5000	67.165
464.0000	67.1716
464.5000	67.1984
465.0000	67.2496
465.5000	67.2643
466.0000	67.2256
466.5000	67.2112
467.0000	67.2151
467.5000	67.2196
468.0000	67.2683
468.5000	67.2988
469.0000	67.3365
469.5000	67.3585
470.0000	67.3568
470.5000	67.3792
471.0000	67.3751
471.5000	67.4097
472.0000	67.4398
472.5000	67.4365
473.0000	67.4253
473.5000	67.4494
474.0000	67.4578
474.5000	67.4801
475.0000	67.5208
475.5000	67.5302
476.0000	67.584
476.5000	67.5997
477.0000	67.6221
477.5000	67.6145
478.0000	67.5904
478.5000	67.6029
479.0000	67.6244
479.5000	67.6467
480.0000	67.6569
480.5000	67.7078
481.0000	67.7358
481.5000	67.7409
482.0000	67.7904
482.5000	67.7913
483.0000	67.8308
483.5000	67.8671
484.0000	67.8983
484.5000	67.9109
485.0000	67.9214
485.5000	67.9134
486.0000	67.9063
486.5000	67.8779
487.0000	67.8611
487.5000	67.9404
488.0000	67.9896
488.5000	68.0489
489.0000	68.0589
489.5000	68.0376
490.0000	68.0383
490.5000	68.0582
491.0000	68.0876
491.5000	68.112
492.0000	68.1356
492.5000	68.1574
493.0000	68.196
493.5000	68.2005
494.0000	68.2259
494.5000	68.2344
495.0000	68.2593
495.5000	68.2716
496.0000	68.2477
496.5000	68.2621
497.0000	68.2578
497.5000	68.2818
498.0000	68.3217
498.5000	68.3515
499.0000	68.3806
499.5000	68.4046
500.0000	68.4328
500.5000	68.44
501.0000	68.4317
501.5000	68.4386
502.0000	68.4901
502.5000	68.5276
503.0000	68.5584
503.5000	68.5868
504.0000	68.5528
504.5000	68.6013
505.0000	68.6384
505.5000	68.6414
506.0000	68.6438
506.5000	68.6683
507.0000	68.6912
507.5000	68.735
508.0000	68.7949
508.5000	68.7478
509.0000	68.7372
509.5000	68.7934
510.0000	68.793
510.5000	68.8484
511.0000	68.9263
511.5000	68.9099
512.0000	68.9513
512.5000	68.9633
513.0000	68.9405
513.5000	68.991
514.0000	68.9912
514.5000	69.0288
515.0000	69.0666
515.5000	69.035
516.0000	69.0716
516.5000	69.0433
517.0000	69.021
517.5000	69.0686
518.0000	69.0495
518.5000	69.0798
519.0000	69.1342
519.5000	69.1473
520.0000	69.1858
520.5000	69.2218
521.0000	69.2142
521.5000	69.1953
522.0000	69.23
522.5000	69.2299
523.0000	69.2736
523.5000	69.3067
524.0000	69.3128
524.5000	69.3324
525.0000	69.327
525.5000	69.353
526.0000	69.3674
526.5000	69.3871
527.0000	69.393
527.5000	69.4003
528.0000	69.4113
528.5000	69.457
529.0000	69.5021
529.5000	69.5271
530.0000	69.5475
530.5000	69.5126
531.0000	69.5344
531.5000	69.5739
532.0000	69.5732
532.5000	69.6162
533.0000	69.6027
533.5000	69.6052
534.0000	69.6773
534.5000	69.6943
535.0000	69.7502
535.5000	69.7597
536.0000	69.7446
536.5000	69.8107
537.0000	69.7937
537.5000	69.8131
538.0000	69.8392
538.5000	69.7969
539.0000	69.8177
539.5000	69.818
540.0000	69.8438
540.5000	69.8785
541.0000	69.9188
541.5000	69.9606
542.0000	69.9335
542.5000	69.9639
543.0000	69.9574
543.5000	69.9778
544.0000	70.0414
544.5000	70.0707
545.0000	70.1105
545.5000	70.1034
546.0000	70.1211
546.5000	70.1301
547.0000	70.1596
547.5000	70.2039
548.0000	70.2309
548.5000	70.2591
549.0000	70.258
549.5000	70.317
550.0000	70.3447
550.5000	70.3314
551.0000	70.3756
551.5000	70.339
552.0000	70.3492
552.5000	70.4004
553.0000	70.41
553.5000	70.4447
554.0000	70.4469
554.5000	70.456
555.0000	70.4432
555.5000	70.4568
556.0000	70.4736
556.5000	70.5416
557.0000	70.5851
557.5000	70.5983
558.0000	70.6326
558.5000	70.5933
559.0000	70.6248
559.5000	70.6642
560.0000	70.6679
560.5000	70.6738
561.0000	70.7209
561.5000	70.7417
562.0000	70.78
562.5000	70.8062
563.0000	70.8052
563.5000	70.8401
564.0000	70.8341
564.5000	70.8935
565.0000	70.9061
565.5000	70.9029
566.0000	70.9224
566.5000	70.9122
567.0000	70.9424
567.5000	70.9712
568.0000	71.0085
568.5000	71.0195
569.0000	70.9994
569.5000	70.9893
570.0000	71.0037
570.5000	71.0389
571.0000	71.0819
571.5000	71.1125
572.0000	71.1515
572.5000	71.1384
573.0000	71.1592
573.5000	71.1866
574.0000	71.157
574.5000	71.1931
575.0000	71.2005
575.5000	71.2496
576.0000	71.3013
576.5000	71.3136
577.0000	71.3531
577.5000	71.3263
578.0000	71.3485
578.5000	71.3847
579.0000	71.404
579.5000	71.4221
580.0000	71.4476
580.5000	71.4618
581.0000	71.4662
581.5000	71.532
582.0000	71.5488
582.5000	71.594
583.0000	71.6239
583.5000	71.6461
584.0000	71.6713
584.5000	71.6716
585.0000	71.6578
585.5000	71.6276
586.0000	71.655
586.5000	71.6889
587.0000	71.7383
587.5000	71.7922
588.0000	71.7809
588.5000	71.7874
589.0000	71.7947
589.5000	71.7864
590.0000	71.7999
590.5000	71.8323
591.0000	71.8418
591.5000	71.874
592.0000	71.9295
592.5000	71.9369
593.0000	71.9494
593.5000	71.9837
594.0000	71.9409
594.5000	71.9565
595.0000	71.9764
595.5000	72.0155
596.0000	72.1093
596.5000	72.1253
597.0000	72.1548
597.5000	72.1117
598.0000	72.1091
598.5000	72.1577
599.0000	72.161
599.5000	72.2232
600.0000	72.2478
600.5000	72.2483
601.0000	72.3031
601.5000	72.3231
602.0000	72.3046
602.5000	72.3319
603.0000	72.3512
603.5000	72.3417
604.0000	72.3979
604.5000	72.4033
605.0000	72.4252
605.5000	72.4574
606.0000	72.4758
606.5000	72.4695
607.0000	72.4806
607.5000	72.4955
608.0000	72.5099
608.5000	72.5622
609.0000	72.5853
609.5000	72.5975
610.0000	72.6114
610.5000	72.6242
611.0000	72.624
611.5000	72.6738
612.0000	72.6851
612.5000	72.6972
613.0000	72.7138
613.5000	72.7397
614.0000	72.7679
614.5000	72.7575
615.0000	72.8036
615.5000	72.8058
616.0000	72.7964
616.5000	72.86
617.0000	72.8499
617.5000	72.8845
618.0000	72.8909
618.5000	72.917
619.0000	72.9849
619.5000	72.9764
620.0000	73.0473
620.5000	73.0521
621.0000	73.0192
621.5000	73.0292
622.0000	73.0404
622.5000	73.0176
623.0000	73.0485
623.5000	73.0731
624.0000	73.1022
624.5000	73.2013
625.0000	73.2204
625.5000	73.2602
626.0000	73.2537
626.5000	73.2335
627.0000	73.2879
627.5000	73.2847
628.0000	73.3137
628.5000	73.3138
629.0000	73.2947
629.5000	73.3181
630.0000	73.372
630.5000	73.4174
631.0000	73.4606
631.5000	73.5051
632.0000	73.5075
632.5000	73.5304
633.0000	73.5621
633.5000	73.5805
634.0000	73.5722
634.5000	73.5623
635.0000	73.5351
635.5000	73.5636
636.0000	73.6231
636.5000	73.6573
637.0000	73.7176
637.5000	73.6815
638.0000	73.6848
638.5000	73.7563
639.0000	73.7324
639.5000	73.8413
640.0000	73.8417
640.5000	73.801
641.0000	73.8741
641.5000	73.829
642.0000	73.8199
642.5000	73.8589
643.0000	73.8238
643.5000	73.8184
644.0000	73.8847
644.5000	73.8954
645.0000	73.9155
645.5000	73.9687
646.0000	73.9635
646.5000	73.9785
647.0000	74.0096
647.5000	74.0149
648.0000	74.0384
648.5000	74.0491
649.0000	74.0946
649.5000	74.1085
650.0000	74.0993
650.5000	74.1439
651.0000	74.1337
651.5000	74.1497
652.0000	74.1907
652.5000	74.2076
653.0000	74.2331
653.5000	74.2862
654.0000	74.2996
654.5000	74.31
655.0000	74.3195
655.5000	74.2996
656.0000	74.3528
656.5000	74.3572
657.0000	74.3737
657.5000	74.3842
658.0000	74.4006
658.5000	74.4302
659.0000	74.4746
659.5000	74.5204
660.0000	74.5274
660.5000	74.5428
661.0000	74.5555
661.5000	74.5847
662.0000	74.5752
662.5000	74.5767
663.0000	74.5778
663.5000	74.5737
664.0000	74.6311
664.5000	74.6399
665.0000	74.6615
665.5000	74.6609
666.0000	74.6752
666.5000	74.6983
667.0000	74.6878
667.5000	74.7233
668.0000	74.6986
668.5000	74.7098
669.0000	74.7328
669.5000	74.7875
670.0000	74.8029
670.5000	74.8539
671.0000	74.8819
671.5000	74.8473
672.0000	74.874
672.5000	74.8995
673.0000	74.8978
673.5000	74.8965
674.0000	74.9193
674.5000	74.9089
675.0000	74.9544
675.5000	74.965
676.0000	74.9606
676.5000	75.0025
677.0000	75.001
677.5000	75.0676
678.0000	75.0972
678.5000	75.0658
679.0000	75.0972
679.5000	75.1099
680.0000	75.0861
680.5000	75.1045
681.0000	75.1155
681.5000	75.1039
682.0000	75.1427
682.5000	75.1875
683.0000	75.2281
683.5000	75.244
684.0000	75.2965
684.5000	75.2947
685.0000	75.2754
685.5000	75.3021
686.0000	75.3348
686.5000	75.3714
687.0000	75.4216
687.5000	75.4498
688.0000	75.4145
688.5000	75.4303
689.0000	75.4281
689.5000	75.4471
690.0000	75.4873
690.5000	75.4761
691.0000	75.484
691.5000	75.4691
692.0000	75.4882
692.5000	75.5145
693.0000	75.5089
693.5000	75.525
694.0000	75.5367
694.5000	75.5194
695.0000	75.5276
695.5000	75.5427
696.0000	75.5504
696.5000	75.5998
697.0000	75.6035
697.5000	75.6433
698.0000	75.6203
698.5000	75.659
699.0000	75.6879
699.5000	75.6822
700.0000	75.704
700.5000	75.669
701.0000	75.6822
701.5000	75.6955
702.0000	75.7399
702.5000	75.7807
703.0000	75.8189
703.5000	75.8378
704.0000	75.8551
704.5000	75.8373
705.0000	75.8372
705.5000	75.8384
706.0000	75.8342
706.5000	75.8881
707.0000	75.8895
707.5000	75.9328
708.0000	75.9837
708.5000	75.9686
709.0000	76.0409
709.5000	76.0423
710.0000	75.9977
710.5000	76.033
711.0000	76.0047
711.5000	76.0006
712.0000	76.0377
712.5000	76.0607
713.0000	76.0586
713.5000	76.0681
714.0000	76.1292
714.5000	76.1504
715.0000	76.1992
715.5000	76.2773
716.0000	76.2602
716.5000	76.2435
717.0000	76.2559
717.5000	76.199
718.0000	76.207
718.5000	76.2347
719.0000	76.2545
719.5000	76.2881
720.0000	76.282
720.5000	76.3102
721.0000	76.3413
721.5000	76.3445
722.0000	76.3847
722.5000	76.3842
723.0000	76.393
723.5000	76.4211
724.0000	76.4208
724.5000	76.3849
725.0000	76.386
725.5000	76.3905
726.0000	76.422
726.5000	76.4767
727.0000	76.4749
727.5000	76.4738
728.0000	76.4664
728.5000	76.4834
729.0000	76.4831
729.5000	76.5187
730.0000	76.6056
730.5000	76.5802
731.0000	76.6376
731.5000	76.6553
732.0000	76.6117
732.5000	76.6513
733.0000	76.6196
733.5000	76.5866
734.0000	76.5859
734.5000	76.5978
735.0000	76.6082
735.5000	76.6807
736.0000	76.6889
736.5000	76.7104
737.0000	76.7
737.5000	76.7018
738.0000	76.7139
738.5000	76.7099
739.0000	76.7399
739.5000	76.7501
740.0000	76.7772
740.5000	76.7903
741.0000	76.8225
741.5000	76.8627
742.0000	76.867
742.5000	76.8948
743.0000	76.9076
743.5000	76.9058
744.0000	76.8883
744.5000	76.8952
745.0000	76.8693
745.5000	76.8575
746.0000	76.8534
746.5000	76.8511
747.0000	76.8953
747.5000	76.9034
748.0000	76.9801
748.5000	76.9785
749.0000	76.9815
749.5000	76.9849
750.0000	76.9628
750.5000	76.9791
751.0000	77.0115
751.5000	77.0224
752.0000	77.0486
752.5000	77.0574
753.0000	77.0432
753.5000	77.0779
754.0000	77.0572
754.5000	77.0993
755.0000	77.1666
755.5000	77.1594
756.0000	77.1623
756.5000	77.1788
757.0000	77.1688
757.5000	77.1845
758.0000	77.2297
758.5000	77.2364
759.0000	77.2268
759.5000	77.2762
760.0000	77.26
760.5000	77.2736
761.0000	77.2854
761.5000	77.2873
762.0000	77.3167
762.5000	77.3329
763.0000	77.3447
763.5000	77.337
764.0000	77.3518
764.5000	77.344
765.0000	77.3504
765.5000	77.3317
766.0000	77.3579
766.5000	77.3977
767.0000	77.4245
767.5000	77.4774
768.0000	77.4805
768.5000	77.4529
769.0000	77.459
769.5000	77.4459
770.0000	77.4404
770.5000	77.4486
771.0000	77.4382
771.5000	77.4538
772.0000	77.464
772.5000	77.4455
773.0000	77.4557
773.5000	77.4585
774.0000	77.494
774.5000	77.562
775.0000	77.5676
775.5000	77.5893
776.0000	77.5883
776.5000	77.6046
777.0000	77.631
777.5000	77.6114
778.0000	77.6167
778.5000	77.6175
779.0000	77.6465
779.5000	77.6959
780.0000	77.7581
780.5000	77.744
781.0000	77.7328
781.5000	77.7099
782.0000	77.6442
782.5000	77.6811
783.0000	77.6976
783.5000	77.7021
784.0000	77.7366
784.5000	77.7876
785.0000	77.7883
785.5000	77.7971
786.0000	77.8157
786.5000	77.7704
787.0000	77.8061
787.5000	77.8182
788.0000	77.8683
788.5000	77.8511
789.0000	77.8449
789.5000	77.8646
790.0000	77.8145
790.5000	77.8567
791.0000	77.8484
791.5000	77.911
792.0000	77.9257
792.5000	77.9716
793.0000	78.0006
793.5000	77.978
794.0000	77.9859
794.5000	77.9859
795.0000	78.0015
795.5000	77.9916
796.0000	78.0384
796.5000	78.0582
797.0000	78.0781
797.5000	78.1049
798.0000	78.1188
798.5000	78.0866
799.0000	78.0762
799.5000	78.0885
800.0000	78.057
800.5000	78.0832
801.0000	78.0894
801.5000	78.103
802.0000	78.1564
802.5000	78.1494
803.0000	78.161
803.5000	78.1763
804.0000	78.1873
804.5000	78.1471
805.0000	78.1655
805.5000	78.1789
806.0000	78.2046
806.5000	78.2493
807.0000	78.2223
807.5000	78.1998
808.0000	78.1657
808.5000	78.1954
809.0000	78.2455
809.5000	78.2973
810.0000	78.2597
810.5000	78.291
811.0000	78.2866
811.5000	78.2565
812.0000	78.3117
812.5000	78.3022
813.0000	78.2859
813.5000	78.2988
814.0000	78.301
814.5000	78.3208
815.0000	78.3622
815.5000	78.3959
816.0000	78.3895
816.5000	78.3998
817.0000	78.4514
817.5000	78.4143
818.0000	78.4311
818.5000	78.4381
819.0000	78.4075
819.5000	78.4855
820.0000	78.5007
820.5000	78.4827
821.0000	78.4623
821.5000	78.4424
822.0000	78.4645
822.5000	78.4665
823.0000	78.5022
823.5000	78.5061
824.0000	78.4538
824.5000	78.5009
825.0000	78.5352
825.5000	78.5341
826.0000	78.5826
826.5000	78.6208
827.0000	78.5905
827.5000	78.5677
828.0000	78.61
828.5000	78.5593
829.0000	78.5664
829.5000	78.6259
830.0000	78.6029
830.5000	78.6335
831.0000	78.6504
831.5000	78.6336
832.0000	78.6686
832.5000	78.6657
833.0000	78.6869
833.5000	78.7196
834.0000	78.7022
834.5000	78.7313
835.0000	78.7167
835.5000	78.7046
836.0000	78.7048
836.5000	78.6499
837.0000	78.6737
837.5000	78.6646
838.0000	78.6706
838.5000	78.7236
839.0000	78.7298
839.5000	78.7934
840.0000	78.8281
840.5000	78.8453
841.0000	78.8353
841.5000	78.8012
842.0000	78.829
842.5000	78.8137
843.0000	78.8592
843.5000	78.8599
844.0000	78.8457
844.5000	78.8313
845.0000	78.8369
845.5000	78.8743
846.0000	78.8446
846.5000	78.9287
847.0000	78.9358
847.5000	78.9275
848.0000	79.0016
848.5000	78.9572
849.0000	78.933
849.5000	78.9505
850.0000	78.9358
850.5000	78.9568
851.0000	78.9698
851.5000	78.966
852.0000	78.9698
852.5000	78.9628
853.0000	78.9714
853.5000	78.9315
854.0000	78.9115
854.5000	78.9416
855.0000	78.9559
855.5000	79.0342
856.0000	79.0555
856.5000	79.0818
857.0000	79.0751
857.5000	79.0385
858.0000	79.0715
858.5000	79.0477
859.0000	79.0631
859.5000	79.1037
860.0000	79.0714
860.5000	79.1001
861.0000	79.116
861.5000	79.1151
862.0000	79.1351
862.5000	79.1424
863.0000	79.1244
863.5000	79.1261
864.0000	79.1356
864.5000	79.1366
865.0000	79.1575
865.5000	79.2035
866.0000	79.2264
866.5000	79.2411
867.0000	79.248
867.5000	79.2029
868.0000	79.2193
868.5000	79.1998
869.0000	79.2429
869.5000	79.2998
870.0000	79.3161
870.5000	79.3174
871.0000	79.3097
871.5000	79.2918
872.0000	79.2566
872.5000	79.2933
873.0000	79.2954
873.5000	79.2877
874.0000	79.2951
874.5000	79.3049
875.0000	79.3194
875.5000	79.333
876.0000	79.3572
876.5000	79.3945
877.0000	79.361
877.5000	79.3532
878.0000	79.3762
878.5000	79.3351
879.0000	79.392
879.5000	79.4083
880.0000	79.3954
880.5000	79.3969
881.0000	79.4127
881.5000	79.405
882.0000	79.4288
882.5000	79.4558
883.0000	79.4157
883.5000	79.4209
884.0000	79.3852
884.5000	79.3889
885.0000	79.4019
885.5000	79.4261
886.0000	79.4605
886.5000	79.4489
887.0000	79.4688
887.5000	79.4916
888.0000	79.5044
888.5000	79.5506
889.0000	79.564
889.5000	79.582
890.0000	79.5795
890.5000	79.5727
891.0000	79.5897
891.5000	79.596
892.0000	79.6023
892.5000	79.5774
893.0000	79.5843
893.5000	79.5589
894.0000	79.5344
894.5000	79.5719
895.0000	79.5536
895.5000	79.5552
896.0000	79.5729
896.5000	79.5751
897.0000	79.5605
897.5000	79.6248
898.0000	79.6898
898.5000	79.6937
899.0000	79.7312
899.5000	79.7231
900.0000	79.7041
900.5000	79.6858
901.0000	79.6742
901.5000	79.678
902.0000	79.6595
902.5000	79.693
903.0000	79.7107
903.5000	79.7289
904.0000	79.7953
904.5000	79.8019
905.0000	79.8211
905.5000	79.8269
906.0000	79.7712
906.5000	79.7494
907.0000	79.7665
907.5000	79.7603
908.0000	79.7546
908.5000	79.7579
909.0000	79.7488
909.5000	79.7087
910.0000	79.76
910.5000	79.7646
911.0000	79.78
911.5000	79.8268
912.0000	79.8687
912.5000	79.8764
913.0000	79.8844
913.5000	79.9072
914.0000	79.8769
914.5000	79.9063
915.0000	79.9245
915.5000	79.9184
916.0000	79.9162
916.5000	79.9382
917.0000	79.9245
917.5000	79.939
918.0000	79.9876
918.5000	79.966
919.0000	80.0028
919.5000	79.9871
920.0000	79.9687
920.5000	80.0309
921.0000	80.0137
921.5000	79.9892
922.0000	80.0064
922.5000	79.9945
923.0000	79.9984
923.5000	80.0391
924.0000	80.0403
924.5000	80.018
925.0000	80.0436
925.5000	80.0369
926.0000	80.0596
926.5000	80.0622
927.0000	80.0723
927.5000	80.0909
928.0000	80.087
928.5000	80.1182
929.0000	80.0926
929.5000	80.0844
930.0000	80.0536
930.5000	80.0229
931.0000	80.0384
931.5000	80.0681
932.0000	80.0659
932.5000	80.0874
933.0000	80.1377
933.5000	80.1564
934.0000	80.2089
934.5000	80.2247
935.0000	80.2288
935.5000	80.2764
936.0000	80.2636
936.5000	80.2683
937.0000	80.2222
937.5000	80.1995
938.0000	80.2033
938.5000	80.2016
939.0000	80.2357
939.5000	80.2328
940.0000	80.2033
940.5000	80.2138
941.0000	80.1854
941.5000	80.1883
942.0000	80.2478
942.5000	80.2749
943.0000	80.3107
943.5000	80.345
944.0000	80.324
944.5000	80.35
945.0000	80.3546
945.5000	80.3082
946.0000	80.2931
946.5000	80.2966
947.0000	80.316
947.5000	80.34
948.0000	80.3609
948.5000	80.3602
949.0000	80.365
949.5000	80.366
950.0000	80.3788
950.5000	80.3575
951.0000	80.3718
951.5000	80.3999
952.0000	80.4346
952.5000	80.4654
953.0000	80.46
953.5000	80.4555
954.0000	80.4533
954.5000	80.4243
955.0000	80.4083
955.5000	80.4243
956.0000	80.4267
956.5000	80.4716
957.0000	80.4553
957.5000	80.422
958.0000	80.407
958.5000	80.3956
959.0000	80.4618
959.5000	80.5061
960.0000	80.5284
960.5000	80.5433
961.0000	80.5325
961.5000	80.5212
962.0000	80.54
962.5000	80.5426
963.0000	80.5517
963.5000	80.5561
964.0000	80.5377
964.5000	80.5157
965.0000	80.5498
965.5000	80.5655
966.0000	80.5873
966.5000	80.6166
967.0000	80.5829
967.5000	80.6051
968.0000	80.6152
968.5000	80.6194
969.0000	80.6469
969.5000	80.6423
970.0000	80.6295
970.5000	80.6297
971.0000	80.6478
971.5000	80.6372
972.0000	80.6678
972.5000	80.671
973.0000	80.6593
973.5000	80.6982
974.0000	80.6987
974.5000	80.7305
975.0000	80.7608
975.5000	80.7297
976.0000	80.7428
976.5000	80.7398
977.0000	80.7469
977.5000	80.7644
978.0000	80.7492
978.5000	80.7644
979.0000	80.7723
979.5000	80.7915
980.0000	80.851
980.5000	80.8683
981.0000	80.8528
981.5000	80.8784
982.0000	80.8357
982.5000	80.8646
983.0000	80.8649
983.5000	80.8472
984.0000	80.9286
984.5000	80.8857
985.0000	80.8992
985.5000	80.8987
986.0000	80.8599
986.5000	80.8856
987.0000	80.9006
987.5000	80.9534
988.0000	80.9332
988.5000	80.9172
989.0000	80.9103
989.5000	80.8595
990.0000	80.9179
990.5000	80.9397
991.0000	80.9184
991.5000	80.9777
992.0000	80.9972
992.5000	81.0012
993.0000	81.0271
993.5000	80.9985
994.0000	80.9483
994.5000	80.9627
995.0000	81.0017
995.5000	80.9924
996.0000	81.0123
996.5000	81.0525
997.0000	81.005
997.5000	81.0214
998.0000	80.9922
998.5000	80.9811
999.0000	81.0169
999.5000	81.0262
1000.0000	81.0585
1000.5000	81.0533
1001.0000	81.0523
1001.5000	81.0309
1002.0000	81.0503
1002.5000	81.0725
1003.0000	81.0971
1003.5000	81.1672
1004.0000	81.2036
1004.5000	81.1744
1005.0000	81.1815
1005.5000	81.1521
1006.0000	81.1278
1006.5000	81.1779
1007.0000	81.1834
1007.5000	81.1863
1008.0000	81.1821
1008.5000	81.1406
1009.0000	81.1492
1009.5000	81.1703
1010.0000	81.2084
1010.5000	81.262
1011.0000	81.2411
1011.5000	81.2641
1012.0000	81.2562
1012.5000	81.2228
1013.0000	81.2668
1013.5000	81.2318
1014.0000	81.241
1014.5000	81.2832
1015.0000	81.2477
1015.5000	81.2686
1016.0000	81.2503
1016.5000	81.2738
1017.0000	81.2908
1017.5000	81.3436
1018.0000	81.3822
1018.5000	81.3386
1019.0000	81.3759
1019.5000	81.3597
1020.0000	81.3598
1020.5000	81.3472
1021.0000	81.3661
1021.5000	81.4047
1022.0000	81.3711
1022.5000	81.4115
1023.0000	81.4131
1023.5000	81.3908
1024.0000	81.4144
1024.5000	81.4264
1025.0000	81.4066
1025.5000	81.3797
1026.0000	81.4023
1026.5000	81.405
1027.0000	81.4105
1027.5000	81.4312
1028.0000	81.4359
1028.5000	81.4622
1029.0000	81.512
1029.5000	81.5484
1030.0000	81.5318
1030.5000	81.5442
1031.0000	81.5412
1031.5000	81.4855
1032.0000	81.5108
1032.5000	81.5064
1033.0000	81.4785
1033.5000	81.5292
1034.0000	81.5394
1034.5000	81.5331
1035.0000	81.5402
1035.5000	81.5495
1036.0000	81.5521
1036.5000	81.5552
1037.0000	81.5556
1037.5000	81.5685
1038.0000	81.585
1038.5000	81.5717
1039.0000	81.5987
1039.5000	81.6099
1040.0000	81.642
1040.5000	81.6839
1041.0000	81.6651
1041.5000	81.6519
1042.0000	81.6545
1042.5000	81.624
1043.0000	81.669
1043.5000	81.6727
1044.0000	81.6958
1044.5000	81.7339
1045.0000	81.7404
1045.5000	81.7797
1046.0000	81.7197
1046.5000	81.7029
1047.0000	81.7062
1047.5000	81.7314
1048.0000	81.8059
1048.5000	81.7927
1049.0000	81.7804
1049.5000	81.7359
1050.0000	81.7341
1050.5000	81.774
1051.0000	81.7745
1051.5000	81.7863
1052.0000	81.7629
1052.5000	81.7786
1053.0000	81.7945
1053.5000	81.8156
1054.0000	81.8214
1054.5000	81.8404
1055.0000	81.8719
1055.5000	81.8535
1056.0000	81.8897
1056.5000	81.888
1057.0000	81.8908
1057.5000	81.9255
1058.0000	81.8978
1058.5000	81.9017
1059.0000	81.8978
1059.5000	81.8906
1060.0000	81.8918
1060.5000	81.884
1061.0000	81.8946
1061.5000	81.905
1062.0000	81.9036
1062.5000	81.8993
1063.0000	81.9009
1063.5000	81.904
1064.0000	81.9422
1064.5000	81.9757
1065.0000	81.9876
1065.5000	82.0287
1066.0000	82.0129
1066.5000	82.0338
1067.0000	82.0028
1067.5000	81.9845
1068.0000	82.0155
1068.5000	81.9778
1069.0000	82.0312
1069.5000	82.0163
1070.0000	82.0329
1070.5000	82.0744
1071.0000	82.0353
1071.5000	82.0814
1072.0000	82.0817
1072.5000	82.0804
1073.0000	82.0857
1073.5000	82.0596
1074.0000	82.0718
1074.5000	82.0594
1075.0000	82.0901
1075.5000	82.0974
1076.0000	82.0658
1076.5000	82.124
1077.0000	82.1439
1077.5000	82.1652
1078.0000	82.214
1078.5000	82.1871
1079.0000	82.1966
1079.5000	82.2038
1080.0000	82.1627
1080.5000	82.18
1081.0000	82.204
1081.5000	82.201
1082.0000	82.2598
1082.5000	82.2876
1083.0000	82.2993
1083.5000	82.2948
1084.0000	82.2595
1084.5000	82.2746
1085.0000	82.2421
1085.5000	82.2624
1086.0000	82.3079
1086.5000	82.2664
1087.0000	82.3115
1087.5000	82.3627
1088.0000	82.358
1088.5000	82.3899
1089.0000	82.3865
1089.5000	82.3523
1090.0000	82.3441
1090.5000	82.3477
1091.0000	82.3637
1091.5000	82.3672
1092.0000	82.3918
1092.5000	82.4189
1093.0000	82.4334
1093.5000	82.4546
1094.0000	82.4403
1094.5000	82.4708
1095.0000	82.4468
1095.5000	82.434
1096.0000	82.4711
1096.5000	82.4767
1097.0000	82.4888
1097.5000	82.5123
1098.0000	82.5192
1098.5000	82.5059
1099.0000	82.4856
1099.5000	82.4998
1100.0000	82.5208
1100.5000	82.4715
1101.0000	82.5104
1101.5000	82.503
1102.0000	82.4745
1102.5000	82.5434
1103.0000	82.5473
1103.5000	82.5626
1104.0000	82.5712
1104.5000	82.5607
1105.0000	82.5949
1105.5000	82.5913
1106.0000	82.6095
1106.5000	82.6158
1107.0000	82.6078
1107.5000	82.5919
1108.0000	82.6404
1108.5000	82.6595
1109.0000	82.5767
1109.5000	82.6161
1110.0000	82.5791
1110.5000	82.5889
1111.0000	82.6871
1111.5000	82.6752
1112.0000	82.6656
1112.5000	82.648
1113.0000	82.6298
1113.5000	82.628
1114.0000	82.6387
1114.5000	82.6606
1115.0000	82.7253
1115.5000	82.7571
1116.0000	82.8004
1116.5000	82.8321
1117.0000	82.8308
1117.5000	82.8577
1118.0000	82.8504
1118.5000	82.8697
1119.0000	82.8398
1119.5000	82.8389
1120.0000	82.8493
1120.5000	82.784
1121.0000	82.7773
1121.5000	82.7501
1122.0000	82.7461
1122.5000	82.7508
1123.0000	82.7497
1123.5000	82.7279
1124.0000	82.7297
1124.5000	82.7632
1125.0000	82.786
1125.5000	82.8798
1126.0000	82.9209
1126.5000	82.9422
1127.0000	82.9529
1127.5000	82.933
1128.0000	82.8957
1128.5000	82.908
1129.0000	82.8986
1129.5000	82.9048
1130.0000	82.9012
1130.5000	82.8584
1131.0000	82.8734
1131.5000	82.8338
1132.0000	82.8474
1132.5000	82.8945
1133.0000	82.9074
1133.5000	82.9877
1134.0000	83.0092
1134.5000	82.9945
1135.0000	82.9858
1135.5000	82.9824
1136.0000	82.9835
1136.5000	83.0006
1137.0000	83.0388
1137.5000	83.0355
1138.0000	83.0369
1138.5000	83.053
1139.0000	83.0482
1139.5000	83.0502
1140.0000	83.0661
1140.5000	83.0754
1141.0000	83.1021
1141.5000	83.0879
1142.0000	83.0885
1142.5000	83.0455
1143.0000	83.0424
1143.5000	83.0379
1144.0000	83.1017
1144.5000	83.1013
1145.0000	83.112
1145.5000	83.1577
1146.0000	83.1303
1146.5000	83.1806
1147.0000	83.1703
1147.5000	83.1667
1148.0000	83.1877
1148.5000	83.1922
1149.0000	83.2107
1149.5000	83.2144
1150.0000	83.1976
1150.5000	83.2047
1151.0000	83.1974
1151.5000	83.1877
1152.0000	83.152
1152.5000	83.128
1153.0000	83.13
1153.5000	83.1397
1154.0000	83.1799
1154.5000	83.1833
1155.0000	83.1912
1155.5000	83.2224
1156.0000	83.2309
1156.5000	83.2564
1157.0000	83.2585
1157.5000	83.2436
1158.0000	83.1944
1158.5000	83.2001
1159.0000	83.1988
1159.5000	83.2304
1160.0000	83.2964
1160.5000	83.3271
1161.0000	83.3382
1161.5000	83.33
1162.0000	83.3306
1162.5000	83.3197
1163.0000	83.3309
1163.5000	83.3266
1164.0000	83.3266
1164.5000	83.3562
1165.0000	83.3914
1165.5000	83.4016
1166.0000	83.4064
1166.5000	83.4079
1167.0000	83.3993
1167.5000	83.4493
1168.0000	83.4956
1168.5000	83.4905
1169.0000	83.5025
1169.5000	83.47
1170.0000	83.4312
1170.5000	83.4666
1171.0000	83.4807
1171.5000	83.4622
1172.0000	83.4842
1172.5000	83.4866
1173.0000	83.5048
1173.5000	83.5141
1174.0000	83.4966
1174.5000	83.4607
1175.0000	83.4192
1175.5000	83.4715
1176.0000	83.5066
1176.5000	83.5314
1177.0000	83.556
1177.5000	83.54
1178.0000	83.5219
1178.5000	83.5396
1179.0000	83.5305
1179.5000	83.5193
1180.0000	83.5239
1180.5000	83.5341
1181.0000	83.5515
1181.5000	83.5503
1182.0000	83.5938
1182.5000	83.5975
1183.0000	83.6306
1183.5000	83.6609
1184.0000	83.6255
1184.5000	83.5682
1185.0000	83.5619
1185.5000	83.5647
1186.0000	83.5943
1186.5000	83.6572
1187.0000	83.651
1187.5000	83.7022
1188.0000	83.7103
1188.5000	83.6751
1189.0000	83.6944
1189.5000	83.6405
1190.0000	83.6414
1190.5000	83.6804
1191.0000	83.682
1191.5000	83.7028
1192.0000	83.7376
1192.5000	83.7858
1193.0000	83.7596
1193.5000	83.7689
1194.0000	83.7597
1194.5000	83.7307
1195.0000	83.7427
1195.5000	83.7337
1196.0000	83.7492
1196.5000	83.7153
1197.0000	83.737
1197.5000	83.7663
1198.0000	83.7547
1198.5000	83.7818
1199.0000	83.7639
1199.5000	83.7863
1200.0000	83.778
1200.5000	83.7949
1201.0000	83.8289
1201.5000	83.7931
1202.0000	83.777
1202.5000	83.7867
1203.0000	83.7857
1203.5000	83.8052
1204.0000	83.8252
1204.5000	83.8095
1205.0000	83.8151
1205.5000	83.7992
1206.0000	83.8246
1206.5000	83.855
1207.0000	83.8705
1207.5000	83.9203
1208.0000	83.9165
1208.5000	83.9383
1209.0000	83.9415
1209.5000	83.9145
1210.0000	83.9136
1210.5000	83.881
1211.0000	83.8593
1211.5000	83.8821
1212.0000	83.8935
1212.5000	83.9282
1213.0000	83.9342
1213.5000	83.9268
1214.0000	83.9492
1214.5000	83.9345
1215.0000	83.956
1215.5000	83.9243
1216.0000	83.9411
1216.5000	83.9539
1217.0000	84.0087
1217.5000	84.0525
1218.0000	84.0636
1218.5000	84.0683
1219.0000	84.021
1219.5000	84.05
1220.0000	84.0356
1220.5000	84.0421
1221.0000	84.0809
1221.5000	84.075
1222.0000	84.062
1222.5000	84.0729
1223.0000	84.0607
1223.5000	84.0313
1224.0000	84.0487
1224.5000	83.9994
1225.0000	84.0099
1225.5000	84.0456
1226.0000	84.0694
1226.5000	84.0978
1227.0000	84.1227
1227.5000	84.1014
1228.0000	84.083
1228.5000	84.0968
1229.0000	84.1062
1229.5000	84.1166
1230.0000	84.145
1230.5000	84.175
1231.0000	84.1343
1231.5000	84.1447
1232.0000	84.1398
1232.5000	84.1309
1233.0000	84.1246
1233.5000	84.1453
1234.0000	84.1409
1234.5000	84.1916
1235.0000	84.2075
1235.5000	84.2038
1236.0000	84.2131
1236.5000	84.159
1237.0000	84.1778
1237.5000	84.1873
1238.0000	84.2034
1238.5000	84.2495
1239.0000	84.2639
1239.5000	84.2874
1240.0000	84.2725
1240.5000	84.3019
1241.0000	84.2953
1241.5000	84.309
1242.0000	84.3254
1242.5000	84.3083
1243.0000	84.3085
1243.5000	84.3138
1244.0000	84.3191
1244.5000	84.2877
1245.0000	84.3193
1245.5000	84.2954
1246.0000	84.2953
1246.5000	84.388
1247.0000	84.3901
1247.5000	84.3941
1248.0000	84.4163
1248.5000	84.3208
1249.0000	84.2833
1249.5000	84.3277
1250.0000	84.3349
1250.5000	84.3912
1251.0000	84.412
1251.5000	84.3792
1252.0000	84.3592
1252.5000	84.3507
1253.0000	84.3789
1253.5000	84.3877
1254.0000	84.3917
1254.5000	84.3824
1255.0000	84.3847
1255.5000	84.4193
1256.0000	84.4491
1256.5000	84.465
1257.0000	84.4534
1257.5000	84.4561
1258.0000	84.4055
1258.5000	84.4568
1259.0000	84.5002
1259.5000	84.4898
1260.0000	84.569
1260.5000	84.5421
1261.0000	84.53
1261.5000	84.5592
1262.0000	84.5486
1262.5000	84.5565
1263.0000	84.5437
1263.5000	84.5162
1264.0000	84.5059
1264.5000	84.5347
1265.0000	84.5736
1265.5000	84.5698
1266.0000	84.5959
1266.5000	84.5843
1267.0000	84.5534
1267.5000	84.5927
1268.0000	84.6139
1268.5000	84.6096
1269.0000	84.6304
1269.5000	84.6128
1270.0000	84.5629
1270.5000	84.5765
1271.0000	84.5785
1271.5000	84.604
1272.0000	84.6502
1272.5000	84.5723
1273.0000	84.5829
1273.5000	84.6428
1274.0000	84.6116
1274.5000	84.7157
1275.0000	84.7233
1275.5000	84.6643
1276.0000	84.7437
1276.5000	84.7204
1277.0000	84.7478
1277.5000	84.7526
1278.0000	84.7279
1278.5000	84.7232
1279.0000	84.7351
1279.5000	84.7686
1280.0000	84.7911
1280.5000	84.8236
1281.0000	84.8045
1281.5000	84.8133
1282.0000	84.8328
1282.5000	84.8506
1283.0000	84.8712
1283.5000	84.8753
1284.0000	84.8518
1284.5000	84.8511
1285.0000	84.858
1285.5000	84.8583
1286.0000	84.8844
1286.5000	84.8918
1287.0000	84.9176
1287.5000	84.9101
1288.0000	84.885
1288.5000	84.892
1289.0000	84.8439
1289.5000	84.8631
1290.0000	84.9074
1290.5000	84.9199
1291.0000	84.9167
1291.5000	84.9764
1292.0000	84.9903
1292.5000	84.9602
1293.0000	85.0197
1293.5000	84.9758
1294.0000	84.9924
1294.5000	85.0616
1295.0000	85.0902
1295.5000	85.1016
1296.0000	85.0994
1296.5000	85.0725
1297.0000	85.0235
1297.5000	85.0169
1298.0000	85.0227
1298.5000	85.0143
1299.0000	85.0316
1299.5000	85.0505
1300.0000	85.0115
1300.5000	85.0568
1301.0000	85.1038
1301.5000	85.0875
1302.0000	85.0947
1302.5000	85.0693
1303.0000	85.0815
1303.5000	85.1359
1304.0000	85.1265
1304.5000	85.1352
1305.0000	85.121
1305.5000	85.1175
1306.0000	85.1683
1306.5000	85.2177
1307.0000	85.2447
1307.5000	85.2297
1308.0000	85.2369
1308.5000	85.2089
1309.0000	85.241
1309.5000	85.2516
1310.0000	85.2503
1310.5000	85.2991
1311.0000	85.2837
1311.5000	85.3136
1312.0000	85.3021
1312.5000	85.273
1313.0000	85.2467
1313.5000	85.2339
1314.0000	85.2783
1314.5000	85.2797
1315.0000	85.3203
1315.5000	85.351
1316.0000	85.3541
1316.5000	85.4061
1317.0000	85.3838
1317.5000	85.3894
1318.0000	85.4139
1318.5000	85.3927
1319.0000	85.3843
1319.5000	85.3814
1320.0000	85.3556
1320.5000	85.3273
1321.0000	85.3771
1321.5000	85.3852
1322.0000	85.4338
1322.5000	85.4466
1323.0000	85.3862
1323.5000	85.405
1324.0000	85.3818
1324.5000	85.4217
1325.0000	85.472
1325.5000	85.482
1326.0000	85.4858
1326.5000	85.4485
1327.0000	85.5034
1327.5000	85.489
1328.0000	85.5075
1328.5000	85.5617
1329.0000	85.5571
1329.5000	85.5546
1330.0000	85.5473
1330.5000	85.604
1331.0000	85.5826
1331.5000	85.6092
1332.0000	85.6283
1332.5000	85.6416
1333.0000	85.7124
1333.5000	85.6902
1334.0000	85.6766
1334.5000	85.6383
1335.0000	85.6026
1335.5000	85.6494
1336.0000	85.6996
1336.5000	85.7311
1337.0000	85.7248
1337.5000	85.7176
1338.0000	85.7203
1338.5000	85.6678
1339.0000	85.697
1339.5000	85.7304
1340.0000	85.7463
1340.5000	85.7623
1341.0000	85.7579
1341.5000	85.7591
1342.0000	85.7361
1342.5000	85.784
1343.0000	85.8037
1343.5000	85.7967
1344.0000	85.8321
1344.5000	85.8022
1345.0000	85.7622
1345.5000	85.7339
1346.0000	85.7011
1346.5000	85.6896
1347.0000	85.7663
1347.5000	85.8448
1348.0000	85.9064
1348.5000	85.9512
1349.0000	85.9434
1349.5000	85.9467
1350.0000	85.9427
1350.5000	85.9614
1351.0000	85.9585
1351.5000	85.9354
1352.0000	85.9227
1352.5000	85.9459
1353.0000	85.9475
1353.5000	85.9514
1354.0000	85.999
1354.5000	85.9566
1355.0000	85.9625
1355.5000	85.9908
1356.0000	85.9608
1356.5000	85.9952
1357.0000	85.9757
1357.5000	86.0066
1358.0000	86.0091
1358.5000	86.0228
1359.0000	86.06
1359.5000	86.0511
1360.0000	86.0802
1360.5000	86.0649
1361.0000	86.1013
1361.5000	86.0834
1362.0000	86.079
1362.5000	86.0929
1363.0000	86.106
1363.5000	86.1393
1364.0000	86.1498
1364.5000	86.1915
1365.0000	86.1442
1365.5000	86.1527
1366.0000	86.1455
1366.5000	86.1382
1367.0000	86.1528
1367.5000	86.1581
1368.0000	86.2109
1368.5000	86.2309
1369.0000	86.2717
1369.5000	86.2365
1370.0000	86.2469
1370.5000	86.21
1371.0000	86.1612
1371.5000	86.1911
1372.0000	86.177
1372.5000	86.2312
1373.0000	86.2712
1373.5000	86.2812
1374.0000	86.2632
1374.5000	86.2517
1375.0000	86.2492
1375.5000	86.306
1376.0000	86.3445
1376.5000	86.3465
1377.0000	86.388
1377.5000	86.3452
1378.0000	86.3595
1378.5000	86.3873
1379.0000	86.3974
1379.5000	86.4113
1380.0000	86.3783
1380.5000	86.356
1381.0000	86.3738
1381.5000	86.355
1382.0000	86.4303
1382.5000	86.4496
1383.0000	86.4122
1383.5000	86.448
1384.0000	86.4096
1384.5000	86.3795
1385.0000	86.3912
1385.5000	86.3951
1386.0000	86.3731
1386.5000	86.3913
1387.0000	86.4038
1387.5000	86.3872
1388.0000	86.4143
1388.5000	86.4161
1389.0000	86.4002
1389.5000	86.4546
1390.0000	86.4159
1390.5000	86.4286
1391.0000	86.4302
1391.5000	86.3755
1392.0000	86.4221
1392.5000	86.4739
1393.0000	86.5228
1393.5000	86.571
1394.0000	86.5537
1394.5000	86.537
1395.0000	86.5469
1395.5000	86.5613
1396.0000	86.5651
1396.5000	86.5842
1397.0000	86.5775
1397.5000	86.56
1398.0000	86.6021
1398.5000	86.5537
1399.0000	86.5467
1399.5000	86.553
1400.0000	86.5339
1400.5000	86.5503
1401.0000	86.5391
1401.5000	86.5753
1402.0000	86.5761
1402.5000	86.5883
1403.0000	86.633
1403.5000	86.6371
1404.0000	86.6667
1404.5000	86.7004
1405.0000	86.6864
1405.5000	86.6555
1406.0000	86.6229
1406.5000	86.6309
1407.0000	86.6538
1407.5000	86.6713
1408.0000	86.6828
1408.5000	86.6779
1409.0000	86.6758
1409.5000	86.6823
1410.0000	86.7039
1410.5000	86.6673
1411.0000	86.6478
1411.5000	86.6605
1412.0000	86.6235
1412.5000	86.6614
1413.0000	86.7074
1413.5000	86.692
1414.0000	86.7029
1414.5000	86.6858
1415.0000	86.6543
1415.5000	86.6528
1416.0000	86.677
1416.5000	86.6608
1417.0000	86.6844
1417.5000	86.703
1418.0000	86.7376
1418.5000	86.7818
1419.0000	86.7512
1419.5000	86.7419
1420.0000	86.7706
1420.5000	86.7855
1421.0000	86.7663
1421.5000	86.8149
1422.0000	86.7641
1422.5000	86.7414
1423.0000	86.8079
1423.5000	86.7819
1424.0000	86.7918
1424.5000	86.8238
1425.0000	86.7897
1425.5000	86.769
1426.0000	86.8225
1426.5000	86.7873
1427.0000	86.8089
1427.5000	86.8211
1428.0000	86.7971
1428.5000	86.8191
1429.0000	86.8196
1429.5000	86.8534
1430.0000	86.8298
1430.5000	86.8017
1431.0000	86.7902
1431.5000	86.7764
1432.0000	86.7959
1432.5000	86.8023
1433.0000	86.8629
1433.5000	86.8513
1434.0000	86.8517
1434.5000	86.92
1435.0000	86.8842
1435.5000	86.9277
1436.0000	86.9359
1436.5000	86.8962
1437.0000	86.9244
1437.5000	86.8897
1438.0000	86.9115
1438.5000	86.9495
1439.0000	86.9075
1439.5000	86.9115
1440.0000	86.9119
1440.5000	86.8777
1441.0000	86.9017
1441.5000	86.8902
1442.0000	86.8902
1442.5000	86.8973
1443.0000	86.8734
1443.5000	86.8691
1444.0000	86.8574
1444.5000	86.8333
1445.0000	86.8511
1445.5000	86.8642
1446.0000	86.8548
1446.5000	86.891
1447.0000	86.9017
1447.5000	86.9342
1448.0000	86.9372
1448.5000	86.9769
1449.0000	87.0084
1449.5000	87.0012
1450.0000	86.983
1450.5000	86.9646
1451.0000	86.9103
1451.5000	86.9394
1452.0000	86.9858
1452.5000	86.9584
1453.0000	86.9923
1453.5000	86.9618
1454.0000	86.9652
1454.5000	86.974
1455.0000	87.0175
1455.5000	87.0384
1456.0000	87.0187
1456.5000	87.0773
1457.0000	87.0624
1457.5000	87.071
1458.0000	87.0995
1458.5000	87.1018
1459.0000	87.0727
1459.5000	87.0534
1460.0000	87.0694
1460.5000	87.0323
1461.0000	87.0351
1461.5000	87.0642
1462.0000	87.0781
1462.5000	87.0985
1463.0000	87.1413
1463.5000	87.1537
1464.0000	87.1208
1464.5000	87.0955
1465.0000	87.1035
1465.5000	87.0748
1466.0000	87.073
1466.5000	87.1011
1467.0000	87.0657
1467.5000	87.1158
1468.0000	87.1258
1468.5000	87.1081
1469.0000	87.0526
1469.5000	87.067
1470.0000	87.0563
1470.5000	87.1119
1471.0000	87.2048
1471.5000	87.158
1472.0000	87.192
1472.5000	87.1463
1473.0000	87.1265
1473.5000	87.1086
1474.0000	87.106
1474.5000	87.1136
1475.0000	87.115
1475.5000	87.1701
1476.0000	87.1432
1476.5000	87.1578
1477.0000	87.1859
1477.5000	87.1586
1478.0000	87.2165
1478.5000	87.2063
1479.0000	87.1779
1479.5000	87.1795
1480.0000	87.1383
1480.5000	87.1356
1481.0000	87.1181
1481.5000	87.1122
1482.0000	87.128
1482.5000	87.1123
1483.0000	87.1503
1483.5000	87.1699
1484.0000	87.1848
1484.5000	87.2118
1485.0000	87.2294
1485.5000	87.2256
1486.0000	87.1926
1486.5000	87.2003
1487.0000	87.2017
1487.5000	87.243
1488.0000	87.2975
1488.5000	87.3277
1489.0000	87.3114
1489.5000	87.2841
1490.0000	87.2192
1490.5000	87.1902
1491.0000	87.1792
1491.5000	87.1825
1492.0000	87.2228
1492.5000	87.2217
1493.0000	87.2451
1493.5000	87.2087
1494.0000	87.1822
1494.5000	87.1855
1495.0000	87.1781
1495.5000	87.2001
1496.0000	87.1975
1496.5000	87.2207
1497.0000	87.2022
1497.5000	87.2401
1498.0000	87.2924
1498.5000	87.306
1499.0000	87.3173
1499.5000	87.2579
1500.0000	87.2402
1500.5000	87.1997
1501.0000	87.221
1501.5000	87.2746
1502.0000	87.2487
1502.5000	87.2479
1503.0000	87.2232
1503.5000	87.2218
1504.0000	87.2752
1504.5000	87.3268
1505.0000	87.3248
1505.5000	87.3002
1506.0000	87.3069
1506.5000	87.3279
1507.0000	87.3794
1507.5000	87.364
1508.0000	87.3362
1508.5000	87.3309
1509.0000	87.3086
1509.5000	87.3724
1510.0000	87.4197
1510.5000	87.4012
1511.0000	87.4145
1511.5000	87.3898
1512.0000	87.3549
1512.5000	87.3488
1513.0000	87.3504
1513.5000	87.392
1514.0000	87.3968
1514.5000	87.4096
1515.0000	87.4058
1515.5000	87.3715
1516.0000	87.3859
1516.5000	87.4399
1517.0000	87.4054
1517.5000	87.425
1518.0000	87.4066
1518.5000	87.3356
1519.0000	87.3878
1519.5000	87.4406
1520.0000	87.4322
1520.5000	87.4545
1521.0000	87.4696
1521.5000	87.3943
1522.0000	87.4171
1522.5000	87.4142
1523.0000	87.384
1523.5000	87.4316
1524.0000	87.4465
1524.5000	87.4269
1525.0000	87.4337
1525.5000	87.4152
1526.0000	87.4135
1526.5000	87.3882
1527.0000	87.3968
1527.5000	87.4024
1528.0000	87.42
1528.5000	87.5074
1529.0000	87.5287
1529.5000	87.4976
1530.0000	87.516
1530.5000	87.4675
1531.0000	87.4575
1531.5000	87.484
1532.0000	87.4681
1532.5000	87.4743
1533.0000	87.4785
1533.5000	87.4738
1534.0000	87.4483
1534.5000	87.4941
1535.0000	87.502
1535.5000	87.504
1536.0000	87.5138
1536.5000	87.5031
1537.0000	87.5083
1537.5000	87.4829
1538.0000	87.5092
1538.5000	87.4845
1539.0000	87.4632
1539.5000	87.5187
1540.0000	87.5532
1540.5000	87.5448
1541.0000	87.5921
1541.5000	87.5932
1542.0000	87.5244
1542.5000	87.5509
1543.0000	87.506
1543.5000	87.529
1544.0000	87.5321
1544.5000	87.5355
1545.0000	87.562
1545.5000	87.5677
1546.0000	87.6334
1546.5000	87.6202
1547.0000	87.6208
1547.5000	87.5707
1548.0000	87.5245
1548.5000	87.5121
1549.0000	87.4863
1549.5000	87.5295
1550.0000	87.542
1550.5000	87.5836
1551.0000	87.5966
1551.5000	87.5692
1552.0000	87.5825
1552.5000	87.5722
1553.0000	87.6158
1553.5000	87.6361
1554.0000	87.6521
1554.5000	87.6758
1555.0000	87.6879
1555.5000	87.6708
1556.0000	87.6577
1556.5000	87.6418
1557.0000	87.594
1557.5000	87.6
1558.0000	87.6163
1558.5000	87.6307
1559.0000	87.6584
1559.5000	87.685
1560.0000	87.6715
1560.5000	87.6655
1561.0000	87.7182
1561.5000	87.73
1562.0000	87.7596
1562.5000	87.7238
1563.0000	87.6816
1563.5000	87.6766
1564.0000	87.6447
1564.5000	87.7295
1565.0000	87.7764
1565.5000	87.784
1566.0000	87.801
1566.5000	87.7855
1567.0000	87.7815
1567.5000	87.7712
1568.0000	87.762
1568.5000	87.752
1569.0000	87.7387
1569.5000	87.7883
1570.0000	87.8596
1570.5000	87.8436
1571.0000	87.822
1571.5000	87.8083
1572.0000	87.7913
1572.5000	87.8541
1573.0000	87.8811
1573.5000	87.857
1574.0000	87.841
1574.5000	87.7994
1575.0000	87.8272
1575.5000	87.8307
1576.0000	87.8104
1576.5000	87.8559
1577.0000	87.8313
1577.5000	87.8233
1578.0000	87.8728
1578.5000	87.8161
1579.0000	87.8249
1579.5000	87.8566
1580.0000	87.8077
1580.5000	87.8674
1581.0000	87.844
1581.5000	87.8518
1582.0000	87.8749
1582.5000	87.8773
1583.0000	87.8904
1583.5000	87.8996
1584.0000	87.9154
1584.5000	87.9166
1585.0000	87.9349
1585.5000	87.8818
1586.0000	87.9387
1586.5000	87.9214
1587.0000	87.8817
1587.5000	87.9398
1588.0000	87.8786
1588.5000	87.8961
1589.0000	87.9228
1589.5000	87.9061
1590.0000	87.899
1590.5000	87.8771
1591.0000	87.8872
1591.5000	87.8904
1592.0000	87.9
1592.5000	87.9294
1593.0000	87.9452
1593.5000	87.9588
1594.0000	88.0044
1594.5000	87.9922
1595.0000	88.0194
1595.5000	88.0393
1596.0000	88.0049
1596.5000	88.0095
1597.0000	87.9739
1597.5000	87.9721
1598.0000	88.0049
1598.5000	88.0138
1599.0000	88.0086
1599.5000	88.068
1600.0000	88.104
1600.5000	88.1208
1601.0000	88.127
1601.5000	88.0588
1602.0000	88.0059
1602.5000	88.0009
1603.0000	88.0693
1603.5000	88.093
1604.0000	88.1317
1604.5000	88.1388
1605.0000	88.1171
1605.5000	88.143
1606.0000	88.1448
1606.5000	88.1295
1607.0000	88.1482
1607.5000	88.116
1608.0000	88.1249
1608.5000	88.1355
1609.0000	88.1242
1609.5000	88.1664
1610.0000	88.1617
1610.5000	88.1992
1611.0000	88.2174
1611.5000	88.2163
1612.0000	88.1702
1612.5000	88.1512
1613.0000	88.113
1613.5000	88.1063
1614.0000	88.1809
1614.5000	88.2073
1615.0000	88.229
1615.5000	88.2211
1616.0000	88.1921
1616.5000	88.2136
1617.0000	88.219
1617.5000	88.2302
1618.0000	88.2211
1618.5000	88.2008
1619.0000	88.208
1619.5000	88.2477
1620.0000	88.2485
1620.5000	88.2528
1621.0000	88.2703
1621.5000	88.2137
1622.0000	88.1945
1622.5000	88.1747
1623.0000	88.1975
1623.5000	88.2137
1624.0000	88.2689
1624.5000	88.3543
1625.0000	88.2925
1625.5000	88.3143
1626.0000	88.3515
1626.5000	88.2488
1627.0000	88.3386
1627.5000	88.3408
1628.0000	88.3183
1628.5000	88.4031
1629.0000	88.3599
1629.5000	88.359
1630.0000	88.3699
1630.5000	88.3307
1631.0000	88.3297
1631.5000	88.3444
1632.0000	88.3661
1632.5000	88.3701
1633.0000	88.4118
1633.5000	88.3975
1634.0000	88.3755
1634.5000	88.3568
1635.0000	88.361
1635.5000	88.3543
1636.0000	88.3567
1636.5000	88.3962
1637.0000	88.3904
1637.5000	88.446
1638.0000	88.4801
1638.5000	88.512
1639.0000	88.4616
1639.5000	88.4042
1640.0000	88.3905
1640.5000	88.3651
1641.0000	88.4053
1641.5000	88.4617
1642.0000	88.5034
1642.5000	88.5093
1643.0000	88.4921
1643.5000	88.4615
1644.0000	88.4107
1644.5000	88.4219
1645.0000	88.4692
1645.5000	88.5046
1646.0000	88.5435
1646.5000	88.5489
1647.0000	88.5091
1647.5000	88.5018
1648.0000	88.5145
1648.5000	88.5138
1649.0000	88.5603
1649.5000	88.5667
1650.0000	88.5136
1650.5000	88.52
1651.0000	88.5149
1651.5000	88.5228
1652.0000	88.5276
1652.5000	88.5387
1653.0000	88.4761
1653.5000	88.4697
1654.0000	88.5208
1654.5000	88.5197
1655.0000	88.6277
1655.5000	88.6521
1656.0000	88.5928
1656.5000	88.6061
1657.0000	88.5272
1657.5000	88.5238
1658.0000	88.5536
1658.5000	88.5715
1659.0000	88.5913
1659.5000	88.5502
1660.0000	88.6027
1660.5000	88.5662
1661.0000	88.5399
1661.5000	88.5861
1662.0000	88.5303
1662.5000	88.5312
1663.0000	88.6354
1663.5000	88.6076
1664.0000	88.622
1664.5000	88.6426
1665.0000	88.6097
1665.5000	88.6616
1666.0000	88.6631
1666.5000	88.6717
1667.0000	88.6326
1667.5000	88.5801
1668.0000	88.6214
1668.5000	88.6047
1669.0000	88.6319
1669.5000	88.6673
1670.0000	88.6382
1670.5000	88.6963
1671.0000	88.7275
1671.5000	88.7115
1672.0000	88.684
1672.5000	88.6436
1673.0000	88.6361
1673.5000	88.6655
1674.0000	88.7252
1674.5000	88.7591
1675.0000	88.7647
1675.5000	88.7284
1676.0000	88.7237
1676.5000	88.7024
1677.0000	88.7227
1677.5000	88.7862
1678.0000	88.7917
1678.5000	88.8156
1679.0000	88.7519
1679.5000	88.6924
1680.0000	88.6619
1680.5000	88.6453
1681.0000	88.6765
1681.5000	88.699
1682.0000	88.7063
1682.5000	88.7166
1683.0000	88.7415
1683.5000	88.8001
1684.0000	88.8
1684.5000	88.7981
1685.0000	88.7759
1685.5000	88.7234
1686.0000	88.6958
1686.5000	88.6999
1687.0000	88.7113
1687.5000	88.7254
1688.0000	88.7729
1688.5000	88.7666
1689.0000	88.7749
1689.5000	88.8227
1690.0000	88.7916
1690.5000	88.792
1691.0000	88.8311
1691.5000	88.825
1692.0000	88.8839
1692.5000	88.8771
1693.0000	88.8477
1693.5000	88.8818
1694.0000	88.886
1694.5000	88.9437
1695.0000	88.921
1695.5000	88.8439
1696.0000	88.788
1696.5000	88.7861
1697.0000	88.82
1697.5000	88.8375
1698.0000	88.9123
1698.5000	88.8794
1699.0000	88.8456
1699.5000	88.8363
1700.0000	88.841
1700.5000	88.8506
1701.0000	88.891
1701.5000	88.934
1702.0000	88.9314
1702.5000	88.9469
1703.0000	88.9377
1703.5000	88.928
1704.0000	88.9052
1704.5000	88.8786
1705.0000	88.8895
1705.5000	88.8798
1706.0000	88.8642
1706.5000	88.8811
1707.0000	88.8676
1707.5000	88.9137
1708.0000	88.9582
1708.5000	88.985
1709.0000	88.9794
1709.5000	88.9452
1710.0000	88.9171
1710.5000	88.8778
1711.0000	88.8787
1711.5000	88.8675
1712.0000	88.8892
1712.5000	88.9157
1713.0000	88.8954
1713.5000	88.924
1714.0000	88.906
1714.5000	88.8852
1715.0000	88.9459
1715.5000	88.9126
1716.0000	88.9044
1716.5000	88.9082
1717.0000	88.8606
1717.5000	88.849
1718.0000	88.915
1718.5000	88.8911
1719.0000	88.9481
1719.5000	89.0667
1720.0000	88.9946
1720.5000	89.0299
1721.0000	89.0458
1721.5000	88.9621
1722.0000	88.9825
1722.5000	89.0016
1723.0000	88.9651
1723.5000	88.997
1724.0000	89.0039
1724.5000	88.9757
1725.0000	88.9851
1725.5000	88.9576
1726.0000	88.9839
1726.5000	89.0126
1727.0000	89.046
1727.5000	89.0114
1728.0000	89.027
1728.5000	89.0091
1729.0000	88.96
1729.5000	89.015
1730.0000	89.0288
1730.5000	89.0154
1731.0000	89.0469
1731.5000	89.0391
1732.0000	88.9674
1732.5000	89.0311
1733.0000	89.0454
1733.5000	89.0615
1734.0000	89.1121
1734.5000	89.0665
1735.0000	89.0695
1735.5000	89.0506
1736.0000	89.0418
1736.5000	89.0632
1737.0000	89.0034
1737.5000	89.0209
1738.0000	89.0547
1738.5000	89.0609
1739.0000	89.1336
1739.5000	89.1206
1740.0000	89.1222
1740.5000	89.1493
1741.0000	89.1709
1741.5000	89.2004
1742.0000	89.1708
1742.5000	89.1306
1743.0000	89.063
1743.5000	89.0444
1744.0000	89.0378
1744.5000	89.0371
1745.0000	89.077
1745.5000	89.0698
1746.0000	89.0932
1746.5000	89.1359
1747.0000	89.1353
1747.5000	89.1891
1748.0000	89.2115
1748.5000	89.1995
1749.0000	89.2044
1749.5000	89.1643
1750.0000	89.1103
1750.5000	89.0835
1751.0000	89.1
1751.5000	89.1023
1752.0000	89.1517
1752.5000	89.1504
1753.0000	89.1111
1753.5000	89.1137
1754.0000	89.0893
1754.5000	89.0952
1755.0000	89.1297
1755.5000	89.1533
1756.0000	89.1703
1756.5000	89.1734
1757.0000	89.1447
1757.5000	89.1381
1758.0000	89.1156
1758.5000	89.1282
1759.0000	89.1375
1759.5000	89.149
1760.0000	89.1434
1760.5000	89.1855
1761.0000	89.2093
1761.5000	89.1923
1762.0000	89.2394
1762.5000	89.2033
1763.0000	89.2281
1763.5000	89.1953
1764.0000	89.1589
1764.5000	89.1974
1765.0000	89.2288
1765.5000	89.2494
1766.0000	89.2978
1766.5000	89.2832
1767.0000	89.2186
1767.5000	89.2585
1768.0000	89.2138
1768.5000	89.2271
1769.0000	89.2313
1769.5000	89.2095
1770.0000	89.2587
1770.5000	89.2771
1771.0000	89.2927
1771.5000	89.282
1772.0000	89.2303
1772.5000	89.1999
1773.0000	89.2085
1773.5000	89.2698
1774.0000	89.3092
1774.5000	89.284
1775.0000	89.2794
1775.5000	89.2447
1776.0000	89.2667
1776.5000	89.3145
1777.0000	89.3099
1777.5000	89.3301
1778.0000	89.2947
1778.5000	89.2856
1779.0000	89.3262
1779.5000	89.3148
1780.0000	89.3311
1780.5000	89.2997
1781.0000	89.2635
1781.5000	89.2263
1782.0000	89.2179
1782.5000	89.2763
1783.0000	89.3272
1783.5000	89.3441
1784.0000	89.3305
1784.5000	89.3037
1785.0000	89.2567
1785.5000	89.2587
1786.0000	89.2779
1786.5000	89.2794
1787.0000	89.2604
1787.5000	89.3436
1788.0000	89.3394
1788.5000	89.3365
1789.0000	89.3435
1789.5000	89.3221
1790.0000	89.347
1790.5000	89.3199
1791.0000	89.3623
1791.5000	89.3332
1792.0000	89.3378
1792.5000	89.354
1793.0000	89.2863
1793.5000	89.3204
1794.0000	89.3015
1794.5000	89.3536
1795.0000	89.3957
1795.5000	89.3716
1796.0000	89.3955
1796.5000	89.3974
1797.0000	89.4364
1797.5000	89.4434
1798.0000	89.4424
1798.5000	89.4161
1799.0000	89.3854
1799.5000	89.401
1800.0000	89.393
1800.5000	89.426
1801.0000	89.4197
1801.5000	89.4143
1802.0000	89.4207
1802.5000	89.4033
1803.0000	89.4356
1803.5000	89.4307
1804.0000	89.4403
1804.5000	89.4525
1805.0000	89.4326
1805.5000	89.4497
1806.0000	89.4644
1806.5000	89.4798
1807.0000	89.4751
1807.5000	89.4346
1808.0000	89.4453
1808.5000	89.401
1809.0000	89.4322
1809.5000	89.4839
1810.0000	89.4455
1810.5000	89.4823
1811.0000	89.4939
1811.5000	89.4558
1812.0000	89.4711
1812.5000	89.4738
1813.0000	89.4531
1813.5000	89.4546
1814.0000	89.4452
1814.5000	89.4669
1815.0000	89.4671
1815.5000	89.4976
1816.0000	89.561
1816.5000	89.5451
1817.0000	89.5297
1817.5000	89.5427
1818.0000	89.4904
1818.5000	89.5279
1819.0000	89.5611
1819.5000	89.5473
1820.0000	89.5726
1820.5000	89.5406
1821.0000	89.5114
1821.5000	89.522
1822.0000	89.5507
1822.5000	89.5719
1823.0000	89.5966
1823.5000	89.5895
1824.0000	89.5335
1824.5000	89.5104
1825.0000	89.5025
1825.5000	89.5065
1826.0000	89.5457
1826.5000	89.5118
1827.0000	89.5192
1827.5000	89.5172
1828.0000	89.5125
1828.5000	89.5605
1829.0000	89.5845
1829.5000	89.5766
1830.0000	89.5641
1830.5000	89.5724
1831.0000	89.5953
1831.5000	89.6143
1832.0000	89.6006
1832.5000	89.5864
1833.0000	89.5564
1833.5000	89.521
1834.0000	89.534
1834.5000	89.5352
1835.0000	89.5392
1835.5000	89.5855
1836.0000	89.6608
1836.5000	89.644
1837.0000	89.6262
1837.5000	89.6521
1838.0000	89.622
1838.5000	89.6306
1839.0000	89.6428
1839.5000	89.6238
1840.0000	89.6039
1840.5000	89.6432
1841.0000	89.6641
1841.5000	89.6692
1842.0000	89.654
1842.5000	89.6251
1843.0000	89.6196
1843.5000	89.6129
1844.0000	89.6343
1844.5000	89.6698
1845.0000	89.6141
1845.5000	89.5944
1846.0000	89.6053
1846.5000	89.5731
1847.0000	89.6902
1847.5000	89.7024
1848.0000	89.7126
1848.5000	89.7416
1849.0000	89.6822
1849.5000	89.7278
1850.0000	89.6723
1850.5000	89.7048
1851.0000	89.7162
1851.5000	89.6953
1852.0000	89.7174
1852.5000	89.6802
1853.0000	89.6939
1853.5000	89.6677
1854.0000	89.6929
1854.5000	89.7261
1855.0000	89.7257
1855.5000	89.7173
1856.0000	89.7419
1856.5000	89.7266
1857.0000	89.6845
1857.5000	89.7565
1858.0000	89.7381
1858.5000	89.6961
1859.0000	89.7256
1859.5000	89.6869
1860.0000	89.6881
1860.5000	89.7172
1861.0000	89.6899
1861.5000	89.6794
1862.0000	89.6598
1862.5000	89.6427
1863.0000	89.674
1863.5000	89.6878
1864.0000	89.7131
1864.5000	89.7222
1865.0000	89.7105
1865.5000	89.7436
1866.0000	89.772
1866.5000	89.7918
1867.0000	89.8104
1867.5000	89.8144
1868.0000	89.7949
1868.5000	89.8067
1869.0000	89.8193
1869.5000	89.7983
1870.0000	89.7582
1870.5000	89.7272
1871.0000	89.7453
1871.5000	89.6972
1872.0000	89.7249
1872.5000	89.7156
1873.0000	89.7124
1873.5000	89.7755
1874.0000	89.7868
1874.5000	89.8136
1875.0000	89.7861
1875.5000	89.7381
1876.0000	89.7161
1876.5000	89.707
1877.0000	89.7288
1877.5000	89.7711
1878.0000	89.8034
1878.5000	89.8176
1879.0000	89.8368
1879.5000	89.8163
1880.0000	89.8105
1880.5000	89.7797
1881.0000	89.766
1881.5000	89.7723
1882.0000	89.7587
1882.5000	89.8063
1883.0000	89.8232
1883.5000	89.864
1884.0000	89.8654
1884.5000	89.8655
1885.0000	89.8834
1885.5000	89.8631
1886.0000	89.9041
1886.5000	89.8955
1887.0000	89.8668
1887.5000	89.8943
1888.0000	89.8766
1888.5000	89.8659
1889.0000	89.8723
1889.5000	89.8108
1890.0000	89.8415
1890.5000	89.8592
1891.0000	89.8404
1891.5000	89.8748
1892.0000	89.8445
1892.5000	89.8599
1893.0000	89.8369
1893.5000	89.8406
1894.0000	89.8655
1894.5000	89.8853
1895.0000	89.9039
1895.5000	89.8784
1896.0000	89.8947
1896.5000	89.8708
1897.0000	89.8681
1897.5000	89.9139
1898.0000	89.882
1898.5000	89.8543
1899.0000	89.8974
1899.5000	89.8838
1900.0000	89.8805
1900.5000	89.9156
1901.0000	89.9023
1901.5000	89.9075
1902.0000	89.9169
1902.5000	89.9199
1903.0000	89.9295
1903.5000	89.8943
1904.0000	89.8833
1904.5000	89.8698
1905.0000	89.8342
1905.5000	89.8415
1906.0000	89.8273
1906.5000	89.8587
1907.0000	89.8792
1907.5000	89.9063
1908.0000	89.9535
1908.5000	89.9287
1909.0000	89.9199
1909.5000	89.9286
1910.0000	89.9201
1910.5000	89.921
1911.0000	89.9395
1911.5000	89.8776
1912.0000	89.8703
1912.5000	89.9087
1913.0000	89.9214
1913.5000	89.9885
1914.0000	89.9878
1914.5000	89.9613
1915.0000	89.9793
1915.5000	89.9703
1916.0000	89.9925
1916.5000	90.0005
1917.0000	90.0087
1917.5000	90.035
1918.0000	90.0001
1918.5000	90.0157
1919.0000	90.0169
1919.5000	89.9963
1920.0000	90.0567
1920.5000	90.0396
1921.0000	90.0319
1921.5000	90.0589
1922.0000	90.0124
1922.5000	90.0714
1923.0000	90.0577
1923.5000	90.0673
1924.0000	90.098
1924.5000	90.0145
1925.0000	90.0212
1925.5000	90.0238
1926.0000	90.0174
1926.5000	90.0483
1927.0000	90.0827
1927.5000	90.091
1928.0000	90.052
1928.5000	90.0541
1929.0000	90.0068
1929.5000	89.9755
1930.0000	90.0263
1930.5000	90.0216
1931.0000	90.0299
1931.5000	90.0695
1932.0000	90.0841
1932.5000	90.118
1933.0000	90.0643
1933.5000	90.048
1934.0000	90.0284
1934.5000	90.0491
1935.0000	90.1256
1935.5000	90.1145
1936.0000	90.119
1936.5000	90.0831
1937.0000	90.087
1937.5000	90.0903
1938.0000	90.0803
1938.5000	90.085
1939.0000	90.0687
1939.5000	90.0798
1940.0000	90.0882
1940.5000	90.0763
1941.0000	90.1307
1941.5000	90.1241
1942.0000	90.0996
1942.5000	90.1076
1943.0000	90.0762
1943.5000	90.0808
1944.0000	90.1098
1944.5000	90.118
1945.0000	90.0952
1945.5000	90.1181
1946.0000	90.1503
1946.5000	90.1295
1947.0000	90.1466
1947.5000	90.1143
1948.0000	90.1173
1948.5000	90.1594
1949.0000	90.1635
1949.5000	90.2171
1950.0000	90.1926
1950.5000	90.1434
1951.0000	90.1598
1951.5000	90.1001
1952.0000	90.0993
1952.5000	90.1393
1953.0000	90.1138
1953.5000	90.1362
1954.0000	90.166
1954.5000	90.1771
1955.0000	90.2161
1955.5000	90.2107
1956.0000	90.2006
1956.5000	90.1986
1957.0000	90.1937
1957.5000	90.2043
1958.0000	90.1524
1958.5000	90.1544
1959.0000	90.1411
1959.5000	90.1141
1960.0000	90.1797
1960.5000	90.1872
1961.0000	90.199
1961.5000	90.2336
1962.0000	90.2413
1962.5000	90.2102
1963.0000	90.2293
1963.5000	90.2197
1964.0000	90.1844
1964.5000	90.2487
1965.0000	90.233
1965.5000	90.2213
1966.0000	90.2227
1966.5000	90.189
1967.0000	90.1922
1967.5000	90.2021
1968.0000	90.2442
1968.5000	90.2475
1969.0000	90.2106
1969.5000	90.2104
1970.0000	90.1631
1970.5000	90.1332
1971.0000	90.187
1971.5000	90.2253
1972.0000	90.2301
1972.5000	90.2807
1973.0000	90.3013
1973.5000	90.2549
1974.0000	90.2758
1974.5000	90.2681
1975.0000	90.2365
1975.5000	90.2805
1976.0000	90.2993
1976.5000	90.2822
1977.0000	90.2792
1977.5000	90.2847
1978.0000	90.2381
1978.5000	90.2303
1979.0000	90.2658
1979.5000	90.2845
1980.0000	90.2706
1980.5000	90.3253
1981.0000	90.3294
1981.5000	90.2955
1982.0000	90.3321
1982.5000	90.3248
1983.0000	90.297
1983.5000	90.2812
1984.0000	90.2911
1984.5000	90.3269
1985.0000	90.327
1985.5000	90.4008
1986.0000	90.4219
1986.5000	90.3588
1987.0000	90.372
1987.5000	90.3152
1988.0000	90.3522
1988.5000	90.3567
1989.0000	90.338
1989.5000	90.3659
1990.0000	90.3186
1990.5000	90.3454
1991.0000	90.347
1991.5000	90.3927
1992.0000	90.3699
1992.5000	90.3588
1993.0000	90.3809
1993.5000	90.3317
1994.0000	90.3677
1994.5000	90.4027
1995.0000	90.3916
1995.5000	90.3863
1996.0000	90.3754
1996.5000	90.316
1997.0000	90.3483
1997.5000	90.3578
1998.0000	90.3884
1998.5000	90.4338
1999.0000	90.4378
1999.5000	90.4378
2000.0000	90.4092
2000.5000	90.394
2001.0000	90.3667
2001.5000	90.3847
2002.0000	90.3864
2002.5000	90.3957
2003.0000	90.3963
2003.5000	90.3912
2004.0000	90.4368
2004.5000	90.4434
2005.0000	90.4799
2005.5000	90.4874
2006.0000	90.5064
2006.5000	90.4778
2007.0000	90.4835
2007.5000	90.4826
2008.0000	90.4278
2008.5000	90.4466
2009.0000	90.4294
2009.5000	90.4416
2010.0000	90.4081
2010.5000	90.425
2011.0000	90.437
2011.5000	90.4833
2012.0000	90.5543
2012.5000	90.5461
2013.0000	90.5176
2013.5000	90.4812
2014.0000	90.4921
2014.5000	90.5084
2015.0000	90.5186
2015.5000	90.5072
2016.0000	90.4974
2016.5000	90.4776
2017.0000	90.4635
2017.5000	90.4652
2018.0000	90.4354
2018.5000	90.4629
2019.0000	90.5196
2019.5000	90.5207
2020.0000	90.5302
2020.5000	90.5407
2021.0000	90.5274
2021.5000	90.4899
2022.0000	90.4962
2022.5000	90.4566
2023.0000	90.4191
2023.5000	90.4773
2024.0000	90.4724
2024.5000	90.5218
2025.0000	90.5232
2025.5000	90.5112
2026.0000	90.5464
2026.5000	90.5401
2027.0000	90.5713
2027.5000	90.5816
2028.0000	90.5782
2028.5000	90.5426
2029.0000	90.5122
2029.5000	90.5285
2030.0000	90.532
2030.5000	90.5358
2031.0000	90.5733
2031.5000	90.5702
2032.0000	90.5687
2032.5000	90.5919
2033.0000	90.602
2033.5000	90.5818
2034.0000	90.6035
2034.5000	90.5932
2035.0000	90.544
2035.5000	90.6139
2036.0000	90.5613
2036.5000	90.5668
2037.0000	90.6112
2037.5000	90.5542
2038.0000	90.5549
2038.5000	90.5795
2039.0000	90.5596
2039.5000	90.5495
2040.0000	90.5876
2040.5000	90.5805
2041.0000	90.5854
2041.5000	90.6552
2042.0000	90.6313
2042.5000	90.6446
2043.0000	90.6547
2043.5000	90.6108
2044.0000	90.6328
2044.5000	90.6032
2045.0000	90.5995
2045.5000	90.6107
2046.0000	90.6252
2046.5000	90.6533
2047.0000	90.67
2047.5000	90.6372
2048.0000	90.6355
2048.5000	90.6349
2049.0000	90.6238
2049.5000	90.6234
2050.0000	90.6561
2050.5000	90.6711
2051.0000	90.6838
2051.5000	90.6929
2052.0000	90.6639
2052.5000	90.6539
2053.0000	90.6508
2053.5000	90.6871
2054.0000	90.7143
2054.5000	90.7107
2055.0000	90.6814
2055.5000	90.6528
2056.0000	90.6477
2056.5000	90.6904
2057.0000	90.7617
2057.5000	90.7947
2058.0000	90.7558
2058.5000	90.7291
2059.0000	90.715
2059.5000	90.6962
2060.0000	90.7447
2060.5000	90.7541
2061.0000	90.7415
2061.5000	90.74
2062.0000	90.7198
2062.5000	90.7215
2063.0000	90.7494
2063.5000	90.7819
2064.0000	90.7897
2064.5000	90.7955
2065.0000	90.7633
2065.5000	90.735
2066.0000	90.7177
2066.5000	90.7018
2067.0000	90.7179
2067.5000	90.7262
2068.0000	90.7477
2068.5000	90.7462
2069.0000	90.7519
2069.5000	90.7805
2070.0000	90.7775
2070.5000	90.8052
2071.0000	90.8108
2071.5000	90.8166
2072.0000	90.7907
2072.5000	90.789
2073.0000	90.7875
2073.5000	90.7775
2074.0000	90.8267
2074.5000	90.8698
2075.0000	90.8502
2075.5000	90.8311
2076.0000	90.7937
2076.5000	90.7299
2077.0000	90.7406
2077.5000	90.7514
2078.0000	90.7593
2078.5000	90.7738
2079.0000	90.7591
2079.5000	90.8057
2080.0000	90.8231
2080.5000	90.8437
2081.0000	90.8953
2081.5000	90.8511
2082.0000	90.8604
2082.5000	90.8159
2083.0000	90.7669
2083.5000	90.7833
2084.0000	90.7886
2084.5000	90.7985
2085.0000	90.836
2085.5000	90.8013
2086.0000	90.8006
2086.5000	90.8186
2087.0000	90.839
2087.5000	90.8933
2088.0000	90.8566
2088.5000	90.8696
2089.0000	90.8848
2089.5000	90.8519
2090.0000	90.8904
2090.5000	90.8557
2091.0000	90.8017
2091.5000	90.7877
2092.0000	90.7516
2092.5000	90.8048
2093.0000	90.8272
2093.5000	90.8428
2094.0000	90.8758
2094.5000	90.8723
2095.0000	90.8924
2095.5000	90.9049
2096.0000	90.9068
2096.5000	90.9077
2097.0000	90.9706
2097.5000	90.9849
2098.0000	90.9919
2098.5000	90.9869
2099.0000	90.9227
2099.5000	90.9332
2100.0000	90.9527
2100.5000	90.916
2101.0000	90.8873
2101.5000	90.8939
2102.0000	90.8826
2102.5000	90.8928
2103.0000	90.8865
2103.5000	90.8348
2104.0000	90.8327
2104.5000	90.8783
2105.0000	90.9401
2105.5000	90.9702
2106.0000	90.9969
2106.5000	90.9753
2107.0000	90.9225
2107.5000	90.918
2108.0000	90.8318
2108.5000	90.841
2109.0000	90.9064
2109.5000	90.9119
2110.0000	90.9635
2110.5000	90.9404
2111.0000	90.9097
2111.5000	90.8785
2112.0000	90.888
2112.5000	90.9247
2113.0000	90.9382
2113.5000	90.9611
2114.0000	90.9839
2114.5000	90.9705
2115.0000	90.9457
2115.5000	90.9525
2116.0000	90.9677
2116.5000	90.9593
2117.0000	90.9682
2117.5000	90.989
2118.0000	90.9491
2118.5000	90.9762
2119.0000	90.9504
2119.5000	90.9608
2120.0000	90.9843
2120.5000	90.9786
2121.0000	91.03
2121.5000	91.0268
2122.0000	91.0118
2122.5000	91.0027
2123.0000	91.0064
2123.5000	90.9805
2124.0000	90.9891
2124.5000	91.0108
2125.0000	90.978
2125.5000	91.0068
2126.0000	91.0165
2126.5000	91.0261
2127.0000	91.032
2127.5000	90.9693
2128.0000	90.9323
2128.5000	90.9061
2129.0000	90.9055
2129.5000	90.9574
2130.0000	91.0284
2130.5000	91.0661
2131.0000	91.0651
2131.5000	91.0943
2132.0000	91.0865
2132.5000	91.0762
2133.0000	91.0744
2133.5000	91.0582
2134.0000	91.0198
2134.5000	91.0309
2135.0000	91.0482
2135.5000	91.0877
2136.0000	91.1301
2136.5000	91.0957
2137.0000	91.107
2137.5000	91.0805
2138.0000	91.0528
2138.5000	91.0889
2139.0000	91.0501
2139.5000	91.0379
2140.0000	91.0675
2140.5000	91.0698
2141.0000	91.082
2141.5000	91.1021
2142.0000	91.1081
2142.5000	91.0706
2143.0000	91.0909
2143.5000	91.088
2144.0000	91.0725
2144.5000	91.0831
2145.0000	91.1222
2145.5000	91.0856
2146.0000	91.0545
2146.5000	91.0776
2147.0000	91.0514
2147.5000	91.0783
2148.0000	91.0865
2148.5000	91.0755
2149.0000	91.0916
2149.5000	91.0801
2150.0000	91.0888
2150.5000	91.0809
2151.0000	91.0468
2151.5000	91.0428
2152.0000	91.0451
2152.5000	91.0647
2153.0000	91.1118
2153.5000	91.1364
2154.0000	91.1103
2154.5000	91.1358
2155.0000	91.1264
2155.5000	91.1575
2156.0000	91.1939
2156.5000	91.2157
2157.0000	91.2504
2157.5000	91.2661
2158.0000	91.2755
2158.5000	91.2687
2159.0000	91.2221
2159.5000	91.1921
2160.0000	91.202
2160.5000	91.1392
2161.0000	91.1674
2161.5000	91.1662
2162.0000	91.1426
2162.5000	91.1529
2163.0000	91.1261
2163.5000	91.133
2164.0000	91.1551
2164.5000	91.2264
2165.0000	91.2257
2165.5000	91.2166
2166.0000	91.2426
2166.5000	91.2133
2167.0000	91.2506
2167.5000	91.2306
2168.0000	91.22
2168.5000	91.2209
2169.0000	91.1882
2169.5000	91.1661
2170.0000	91.1466
2170.5000	91.141
2171.0000	91.1531
2171.5000	91.2045
2172.0000	91.2617
2172.5000	91.2651
2173.0000	91.2941
2173.5000	91.2892
2174.0000	91.2573
2174.5000	91.2822
2175.0000	91.2664
2175.5000	91.2935
2176.0000	91.298
2176.5000	91.3402
2177.0000	91.4081
2177.5000	91.4043
2178.0000	91.41
2178.5000	91.3574
2179.0000	91.3434
2179.5000	91.3272
2180.0000	91.322
2180.5000	91.2765
2181.0000	91.2661
2181.5000	91.2899
2182.0000	91.2846
2182.5000	91.3349
2183.0000	91.3132
2183.5000	91.3063
2184.0000	91.3388
2184.5000	91.3271
2185.0000	91.3119
2185.5000	91.3014
2186.0000	91.287
2186.5000	91.2886
2187.0000	91.2938
2187.5000	91.302
2188.0000	91.3065
2188.5000	91.3218
2189.0000	91.2957
2189.5000	91.3411
2190.0000	91.3467
2190.5000	91.3675
2191.0000	91.4146
2191.5000	91.4409
2192.0000	91.4263
2192.5000	91.4182
2193.0000	91.4572
2193.5000	91.3991
2194.0000	91.4279
2194.5000	91.4069
2195.0000	91.3715
2195.5000	91.3944
2196.0000	91.4013
2196.5000	91.4029
2197.0000	91.4142
2197.5000	91.4344
2198.0000	91.4231
2198.5000	91.4523
2199.0000	91.4607
2199.5000	91.4562
2200.0000	91.461
2200.5000	91.4607
2201.0000	91.4467
2201.5000	91.4306
2202.0000	91.422
2202.5000	91.4442
2203.0000	91.4894
2203.5000	91.492
2204.0000	91.513
2204.5000	91.4932
2205.0000	91.4624
2205.5000	91.4909
2206.0000	91.4503
2206.5000	91.4734
2207.0000	91.5039
2207.5000	91.4917
2208.0000	91.5132
2208.5000	91.5212
2209.0000	91.5205
2209.5000	91.5735
2210.0000	91.5882
2210.5000	91.5619
2211.0000	91.5044
2211.5000	91.4434
2212.0000	91.4966
2212.5000	91.5194
2213.0000	91.5581
2213.5000	91.5831
2214.0000	91.5205
2214.5000	91.5477
2215.0000	91.5496
2215.5000	91.542
2216.0000	91.6052
2216.5000	91.5328
2217.0000	91.5411
2217.5000	91.5658
2218.0000	91.5481
2218.5000	91.6088
2219.0000	91.6553
2219.5000	91.6298
2220.0000	91.6079
2220.5000	91.6482
2221.0000	91.6126
2221.5000	91.6445
2222.0000	91.6436
2222.5000	91.5708
2223.0000	91.5604
2223.5000	91.5389
2224.0000	91.5376
2224.5000	91.5716
2225.0000	91.548
2225.5000	91.5693
2226.0000	91.5869
2226.5000	91.5727
2227.0000	91.5891
2227.5000	91.5477
2228.0000	91.5326
2228.5000	91.5593
2229.0000	91.5598
2229.5000	91.6098
2230.0000	91.6444
2230.5000	91.6258
2231.0000	91.6602
2231.5000	91.6345
2232.0000	91.6023
2232.5000	91.6376
2233.0000	91.6139
2233.5000	91.6504
2234.0000	91.643
2234.5000	91.6305
2235.0000	91.6214
2235.5000	91.5781
2236.0000	91.6242
2236.5000	91.6499
2237.0000	91.6674
2237.5000	91.6992
2238.0000	91.7186
2238.5000	91.6712
2239.0000	91.6882
2239.5000	91.6887
2240.0000	91.6375
2240.5000	91.6734
2241.0000	91.681
2241.5000	91.6373
2242.0000	91.6565
2242.5000	91.6533
2243.0000	91.6293
2243.5000	91.6733
2244.0000	91.6839
2244.5000	91.6906
2245.0000	91.6978
2245.5000	91.6692
2246.0000	91.6808
2246.5000	91.6503
2247.0000	91.6749
2247.5000	91.715
2248.0000	91.7038
2248.5000	91.7372
2249.0000	91.7036
2249.5000	91.6732
2250.0000	91.7551
2250.5000	91.7424
2251.0000	91.7671
2251.5000	91.8265
2252.0000	91.7655
2252.5000	91.7408
2253.0000	91.7747
2253.5000	91.7416
2254.0000	91.7177
2254.5000	91.7498
2255.0000	91.7497
2255.5000	91.7649
2256.0000	91.7752
2256.5000	91.7849
2257.0000	91.7682
2257.5000	91.7205
2258.0000	91.7445
2258.5000	91.7395
2259.0000	91.7387
2259.5000	91.8063
2260.0000	91.8089
2260.5000	91.8024
2261.0000	91.8065
2261.5000	91.8155
2262.0000	91.7865
2262.5000	91.7852
2263.0000	91.7783
2263.5000	91.7865
2264.0000	91.7809
2264.5000	91.8082
2265.0000	91.8704
2265.5000	91.8074
2266.0000	91.8269
2266.5000	91.8418
2267.0000	91.7709
2267.5000	91.7889
2268.0000	91.7877
2268.5000	91.7557
2269.0000	91.8002
2269.5000	91.8156
2270.0000	91.9006
2270.5000	91.9139
2271.0000	91.878
2271.5000	91.8887
2272.0000	91.8381
2272.5000	91.8414
2273.0000	91.8467
2273.5000	91.8403
2274.0000	91.829
2274.5000	91.8727
2275.0000	91.8897
2275.5000	91.9068
2276.0000	91.917
2276.5000	91.865
2277.0000	91.8511
2277.5000	91.8417
2278.0000	91.8227
2278.5000	91.8208
2279.0000	91.8484
2279.5000	91.8716
2280.0000	91.9001
2280.5000	91.9273
2281.0000	91.9483
2281.5000	91.9453
2282.0000	91.9547
2282.5000	91.9157
2283.0000	91.8703
2283.5000	91.8632
2284.0000	91.8199
2284.5000	91.8452
2285.0000	91.8508
2285.5000	91.8522
2286.0000	91.9076
2286.5000	91.9434
2287.0000	91.9577
2287.5000	91.9928
2288.0000	91.9534
2288.5000	91.9543
2289.0000	91.9351
2289.5000	91.9425
2290.0000	91.976
2290.5000	91.9364
2291.0000	91.9406
2291.5000	91.8646
2292.0000	91.8373
2292.5000	91.8852
2293.0000	91.8823
2293.5000	91.9004
2294.0000	91.9519
2294.5000	91.9559
2295.0000	91.9694
2295.5000	91.9679
2296.0000	91.9229
2296.5000	91.8942
2297.0000	91.8829
2297.5000	91.9471
2298.0000	91.9629
2298.5000	91.9746
2299.0000	91.9937
2299.5000	91.9206
2300.0000	91.9157
2300.5000	91.9339
2301.0000	91.9458
2301.5000	91.9728
2302.0000	91.9491
2302.5000	91.923
2303.0000	91.9308
2303.5000	91.9358
2304.0000	92.0114
2304.5000	92.0179
2305.0000	92.0344
2305.5000	91.9955
2306.0000	91.9481
2306.5000	91.9726
2307.0000	91.9901
2307.5000	92.0378
2308.0000	92.0433
2308.5000	92.0279
2309.0000	92.0075
2309.5000	91.9802
2310.0000	91.987
2310.5000	91.9676
2311.0000	91.9751
2311.5000	91.9931
2312.0000	91.9733
2312.5000	91.978
2313.0000	91.971
2313.5000	91.9408
2314.0000	91.9635
2314.5000	91.9897
2315.0000	91.9233
2315.5000	91.945
2316.0000	91.9281
2316.5000	91.8908
2317.0000	91.9468
2317.5000	91.9564
2318.0000	91.993
2318.5000	92.0213
2319.0000	92.0193
2319.5000	92.0916
2320.0000	92.1289
2320.5000	92.1147
2321.0000	92.1255
2321.5000	92.095
2322.0000	92.061
2322.5000	92.0637
2323.0000	92.0102
2323.5000	91.9445
2324.0000	91.8914
2324.5000	91.914
2325.0000	91.9302
2325.5000	91.9135
2326.0000	91.9453
2326.5000	91.9421
2327.0000	91.9852
2327.5000	92.0535
2328.0000	92.0387
2328.5000	92.0197
2329.0000	91.9919
2329.5000	92.0018
2330.0000	92.0297
2330.5000	92.068
2331.0000	92.1148
2331.5000	92.1307
2332.0000	92.1003
2332.5000	92.1173
2333.0000	92.1191
2333.5000	92.0596
2334.0000	92.0823
2334.5000	92.047
2335.0000	92.0303
2335.5000	92.086
2336.0000	92.0679
2336.5000	92.0695
2337.0000	92.0961
2337.5000	92.0584
2338.0000	92.0885
2338.5000	92.0513
2339.0000	92.0318
2339.5000	91.9771
2340.0000	92.0073
2340.5000	92.043
2341.0000	92.0118
2341.5000	92.0642
2342.0000	92.0197
2342.5000	92.0361
2343.0000	92.0536
2343.5000	92.0937
2344.0000	92.0881
2344.5000	92.1175
2345.0000	92.1275
2345.5000	92.068
2346.0000	92.109
2346.5000	92.0644
2347.0000	92.0956
2347.5000	92.1208
2348.0000	92.0924
2348.5000	92.104
2349.0000	92.0905
2349.5000	92.1359
2350.0000	92.1199
2350.5000	92.126
2351.0000	92.1231
2351.5000	92.0821
2352.0000	92.0955
2352.5000	92.1292
2353.0000	92.1219
2353.5000	92.1531
2354.0000	92.1369
2354.5000	92.1227
2355.0000	92.1373
2355.5000	92.1376
2356.0000	92.1909
2356.5000	92.1691
2357.0000	92.2011
2357.5000	92.1984
2358.0000	92.1578
2358.5000	92.1896
2359.0000	92.1654
2359.5000	92.1582
2360.0000	92.1735
2360.5000	92.1356
2361.0000	92.1531
2361.5000	92.1514
2362.0000	92.1561
2362.5000	92.1775
2363.0000	92.1555
2363.5000	92.1687
2364.0000	92.1963
2364.5000	92.2193
2365.0000	92.2383
2365.5000	92.2382
2366.0000	92.2129
2366.5000	92.1966
2367.0000	92.1948
2367.5000	92.1851
2368.0000	92.1996
2368.5000	92.2138
2369.0000	92.218
2369.5000	92.2142
2370.0000	92.231
2370.5000	92.2387
2371.0000	92.2292
2371.5000	92.2463
2372.0000	92.2403
2372.5000	92.2365
2373.0000	92.1911
2373.5000	92.2011
2374.0000	92.2498
2374.5000	92.2276
2375.0000	92.2518
2375.5000	92.2827
2376.0000	92.2254
2376.5000	92.2291
2377.0000	92.234
2377.5000	92.2287
2378.0000	92.1988
2378.5000	92.2036
2379.0000	92.205
2379.5000	92.2316
2380.0000	92.2778
2380.5000	92.2969
2381.0000	92.3489
2381.5000	92.3092
2382.0000	92.3206
2382.5000	92.3257
2383.0000	92.3066
2383.5000	92.3376
2384.0000	92.3246
2384.5000	92.3161
2385.0000	92.3161
2385.5000	92.2939
2386.0000	92.3361
2386.5000	92.3199
2387.0000	92.3445
2387.5000	92.3451
2388.0000	92.3074
2388.5000	92.328
2389.0000	92.2925
2389.5000	92.3394
2390.0000	92.3637
2390.5000	92.3515
2391.0000	92.4094
2391.5000	92.3583
2392.0000	92.3169
2392.5000	92.3298
2393.0000	92.3339
2393.5000	92.3605
2394.0000	92.374
2394.5000	92.4124
2395.0000	92.3496
2395.5000	92.3343
2396.0000	92.3499
2396.5000	92.3404
2397.0000	92.3484
2397.5000	92.3812
2398.0000	92.3802
2398.5000	92.3473
2399.0000	92.3842
2399.5000	92.379
2400.0000	92.3896
2400.5000	92.4279
2401.0000	92.4076
2401.5000	92.4155
2402.0000	92.4442
2402.5000	92.4165
2403.0000	92.3979
2403.5000	92.4068
2404.0000	92.3822
2404.5000	92.4109
2405.0000	92.5015
2405.5000	92.4895
2406.0000	92.5144
2406.5000	92.5333
2407.0000	92.4738
2407.5000	92.4481
2408.0000	92.4649
2408.5000	92.4703
2409.0000	92.4785
2409.5000	92.4948
2410.0000	92.5008
2410.5000	92.4891
2411.0000	92.4474
2411.5000	92.4551
2412.0000	92.4387
2412.5000	92.4646
2413.0000	92.4893
2413.5000	92.4584
2414.0000	92.4601
2414.5000	92.4232
2415.0000	92.3847
2415.5000	92.4561
2416.0000	92.4422
2416.5000	92.4532
2417.0000	92.5194
2417.5000	92.4857
2418.0000	92.5295
2418.5000	92.5165
2419.0000	92.4819
2419.5000	92.4804
2420.0000	92.4355
2420.5000	92.4496
2421.0000	92.5104
2421.5000	92.4899
2422.0000	92.5284
2422.5000	92.4965
2423.0000	92.5082
2423.5000	92.5345
2424.0000	92.5379
2424.5000	92.5616
2425.0000	92.5344
2425.5000	92.533
2426.0000	92.4931
2426.5000	92.5126
2427.0000	92.5286
2427.5000	92.5774
2428.0000	92.6229
2428.5000	92.6576
2429.0000	92.6471
2429.5000	92.63
2430.0000	92.6224
2430.5000	92.6313
2431.0000	92.6123
2431.5000	92.5959
2432.0000	92.6045
2432.5000	92.5463
2433.0000	92.573
2433.5000	92.5501
2434.0000	92.529
2434.5000	92.5671
2435.0000	92.5484
2435.5000	92.5627
2436.0000	92.5804
2436.5000	92.5341
2437.0000	92.5603
2437.5000	92.6186
2438.0000	92.6178
2438.5000	92.6305
2439.0000	92.6099
2439.5000	92.6141
2440.0000	92.6271
2440.5000	92.6476
2441.0000	92.662
2441.5000	92.6155
2442.0000	92.5685
2442.5000	92.5974
2443.0000	92.646
2443.5000	92.6738
2444.0000	92.7296
2444.5000	92.6871
2445.0000	92.6353
2445.5000	92.6013
2446.0000	92.549
2446.5000	92.534
2447.0000	92.5739
2447.5000	92.6007
2448.0000	92.6244
2448.5000	92.6713
2449.0000	92.6524
2449.5000	92.6321
2450.0000	92.6237
2450.5000	92.6128
2451.0000	92.6133
2451.5000	92.6128
2452.0000	92.6518
2452.5000	92.6708
2453.0000	92.7099
2453.5000	92.7102
2454.0000	92.6852
2454.5000	92.721
2455.0000	92.6883
2455.5000	92.67
2456.0000	92.7136
2456.5000	92.6767
2457.0000	92.6925
2457.5000	92.6914
2458.0000	92.6412
2458.5000	92.658
2459.0000	92.6468
2459.5000	92.679
2460.0000	92.7383
2460.5000	92.7473
2461.0000	92.7566
2461.5000	92.8031
2462.0000	92.7671
2462.5000	92.7683
2463.0000	92.7446
2463.5000	92.7557
2464.0000	92.7375
2464.5000	92.7325
2465.0000	92.7543
2465.5000	92.6726
2466.0000	92.6333
2466.5000	92.6097
2467.0000	92.5948
2467.5000	92.6224
2468.0000	92.6901
2468.5000	92.7225
2469.0000	92.723
2469.5000	92.6903
2470.0000	92.6982
2470.5000	92.656
2471.0000	92.6321
2471.5000	92.6828
2472.0000	92.7086
2472.5000	92.751
2473.0000	92.8213
2473.5000	92.8226
2474.0000	92.7744
2474.5000	92.7605
2475.0000	92.7175
2475.5000	92.739
2476.0000	92.7641
2476.5000	92.7463
2477.0000	92.7308
2477.5000	92.7166
2478.0000	92.6734
2478.5000	92.6819
2479.0000	92.6785
2479.5000	92.6828
2480.0000	92.7242
2480.5000	92.7263
2481.0000	92.7632
2481.5000	92.7982
2482.0000	92.8266
2482.5000	92.8297
2483.0000	92.8183
2483.5000	92.745
2484.0000	92.7252
2484.5000	92.7568
2485.0000	92.73
2485.5000	92.7835
2486.0000	92.7832
2486.5000	92.7823
2487.0000	92.8026
2487.5000	92.8076
2488.0000	92.7934
2488.5000	92.7573
2489.0000	92.805
2489.5000	92.7484
2490.0000	92.7571
2490.5000	92.7777
2491.0000	92.7432
2491.5000	92.7524
2492.0000	92.7477
2492.5000	92.7009
2493.0000	92.6951
2493.5000	92.7087
2494.0000	92.7121
2494.5000	92.7431
2495.0000	92.7638
2495.5000	92.8084
2496.0000	92.8508
2496.5000	92.88
2497.0000	92.8603
2497.5000	92.8657
2498.0000	92.8464
2498.5000	92.8332
2499.0000	92.8446
2499.5000	92.8052
2500.0000	92.8052
2500.5000	92.812
2501.0000	92.8067
2501.5000	92.8572
2502.0000	92.8814
2502.5000	92.9005
2503.0000	92.9038
2503.5000	92.8262
2504.0000	92.7739
2504.5000	92.7318
2505.0000	92.761
2505.5000	92.7788
2506.0000	92.7994
2506.5000	92.85
2507.0000	92.8429
2507.5000	92.8595
2508.0000	92.8294
2508.5000	92.8194
2509.0000	92.796
2509.5000	92.7969
2510.0000	92.8239
2510.5000	92.7749
2511.0000	92.7767
2511.5000	92.781
2512.0000	92.7726
2512.5000	92.8032
2513.0000	92.8346
2513.5000	92.8667
2514.0000	92.8815
2514.5000	92.8843
2515.0000	92.852
2515.5000	92.8286
2516.0000	92.8282
2516.5000	92.843
2517.0000	92.8652
2517.5000	92.8455
2518.0000	92.8283
2518.5000	92.8251
2519.0000	92.8016
2519.5000	92.8115
2520.0000	92.8243
2520.5000	92.8565
2521.0000	92.8983
2521.5000	92.9354
2522.0000	92.9695
2522.5000	92.9362
2523.0000	92.9192
2523.5000	92.9128
2524.0000	92.9026
2524.5000	92.8865
2525.0000	92.8933
2525.5000	92.8819
2526.0000	92.8537
2526.5000	92.9013
2527.0000	92.91
2527.5000	92.926
2528.0000	92.9297
2528.5000	92.9121
2529.0000	92.8894
2529.5000	92.8674
2530.0000	92.8229
2530.5000	92.8041
2531.0000	92.7909
2531.5000	92.7819
2532.0000	92.7921
2532.5000	92.8035
2533.0000	92.8545
2533.5000	92.8632
2534.0000	92.926
2534.5000	92.9185
2535.0000	92.858
2535.5000	92.873
2536.0000	92.8593
2536.5000	92.8499
2537.0000	92.921
2537.5000	92.8951
2538.0000	92.8914
2538.5000	92.885
2539.0000	92.8736
2539.5000	92.9
2540.0000	92.9056
2540.5000	92.9258
2541.0000	92.9111
2541.5000	92.9222
2542.0000	92.9648
2542.5000	92.9393
2543.0000	92.9237
2543.5000	92.8889
2544.0000	92.8242
2544.5000	92.8637
2545.0000	92.8942
2545.5000	92.9118
2546.0000	92.9353
2546.5000	92.9418
2547.0000	92.9186
2547.5000	92.9049
2548.0000	92.9434
2548.5000	92.9075
2549.0000	92.9336
2549.5000	92.9785
2550.0000	92.9329
2550.5000	92.9579
2551.0000	92.9323
2551.5000	92.9345
2552.0000	92.9812
2552.5000	93.003
2553.0000	93.0451
2553.5000	93.0227
2554.0000	93.0247
2554.5000	93.0184
2555.0000	93.012
2555.5000	93.0158
2556.0000	92.9878
2556.5000	92.9883
2557.0000	92.9996
2557.5000	93.0284
2558.0000	93.0228
2558.5000	93.0556
2559.0000	93.0394
2559.5000	93.0422
2560.0000	93.0496
2560.5000	92.9903
2561.0000	92.9746
2561.5000	92.9434
2562.0000	92.9331
2562.5000	92.9566
2563.0000	92.9648
2563.5000	92.9116
2564.0000	92.9142
2564.5000	92.9039
2565.0000	92.8971
2565.5000	92.9367
2566.0000	92.9629
2566.5000	92.9924
2567.0000	93.0146
2567.5000	92.9952
2568.0000	92.9904
2568.5000	92.9702
2569.0000	92.9435
2569.5000	92.9815
2570.0000	92.978
2570.5000	92.984
2571.0000	93.0093
2571.5000	93.0082
2572.0000	92.9957
2572.5000	92.9575
2573.0000	92.9812
2573.5000	93.0036
2574.0000	93.0185
2574.5000	93.0564
2575.0000	93.0338
2575.5000	92.9988
2576.0000	93.0128
2576.5000	92.9929
2577.0000	93.0145
2577.5000	92.9988
2578.0000	92.9727
2578.5000	93.0252
2579.0000	93.0374
2579.5000	93.0818
2580.0000	93.1002
2580.5000	93.0944
2581.0000	93.0939
2581.5000	93.0663
2582.0000	93.0506
2582.5000	93.0441
2583.0000	93.0116
2583.5000	93.0051
2584.0000	92.9984
2584.5000	92.9973
2585.0000	93.0137
2585.5000	93.0429
2586.0000	93.081
2586.5000	93.0601
2587.0000	93.0284
2587.5000	93.0823
2588.0000	93.0765
2588.5000	93.1422
2589.0000	93.1451
2589.5000	93.1607
2590.0000	93.1624
2590.5000	93.1165
2591.0000	93.1663
2591.5000	93.0742
2592.0000	93.079
2592.5000	93.0813
2593.0000	93.0869
2593.5000	93.1796
2594.0000	93.1532
2594.5000	93.1751
2595.0000	93.1613
2595.5000	93.1562
2596.0000	93.2096
2596.5000	93.1894
2597.0000	93.1856
2597.5000	93.1402
2598.0000	93.1097
2598.5000	93.1316
2599.0000	93.108
2599.5000	93.0819
2600.0000	93.1018
2600.5000	93.1371
2601.0000	93.1451
2601.5000	93.154
2602.0000	93.144
2602.5000	93.1109
2603.0000	93.1389
2603.5000	93.1525
2604.0000	93.1651
2604.5000	93.1261
2605.0000	93.1117
2605.5000	93.1197
2606.0000	93.06
2606.5000	93.1061
2607.0000	93.0976
2607.5000	93.0801
2608.0000	93.1647
2608.5000	93.1234
2609.0000	93.1126
2609.5000	93.1445
2610.0000	93.121
2610.5000	93.1637
2611.0000	93.1993
2611.5000	93.1834
2612.0000	93.1744
2612.5000	93.1396
2613.0000	93.1403
2613.5000	93.1476
2614.0000	93.1423
2614.5000	93.1778
2615.0000	93.1392
2615.5000	93.1614
2616.0000	93.204
2616.5000	93.164
2617.0000	93.1895
2617.5000	93.1734
2618.0000	93.1233
2618.5000	93.2001
2619.0000	93.2243
2619.5000	93.2575
2620.0000	93.2871
2620.5000	93.2219
2621.0000	93.2389
2621.5000	93.2336
2622.0000	93.2603
2622.5000	93.2892
2623.0000	93.2604
2623.5000	93.2403
2624.0000	93.2389
2624.5000	93.2334
2625.0000	93.2534
2625.5000	93.251
2626.0000	93.2675
2626.5000	93.2879
2627.0000	93.266
2627.5000	93.2942
2628.0000	93.2716
2628.5000	93.2608
2629.0000	93.2804
2629.5000	93.234
2630.0000	93.2557
2630.5000	93.2664
2631.0000	93.2484
2631.5000	93.2694
2632.0000	93.2455
2632.5000	93.2392
2633.0000	93.2429
2633.5000	93.2699
2634.0000	93.2642
2634.5000	93.2822
2635.0000	93.2856
2635.5000	93.2763
2636.0000	93.2698
2636.5000	93.2879
2637.0000	93.3244
2637.5000	93.2997
2638.0000	93.3086
2638.5000	93.2692
2639.0000	93.2837
2639.5000	93.3111
2640.0000	93.3191
2640.5000	93.3691
2641.0000	93.3528
2641.5000	93.3541
2642.0000	93.3762
2642.5000	93.3813
2643.0000	93.3944
2643.5000	93.4014
2644.0000	93.3983
2644.5000	93.3773
2645.0000	93.3725
2645.5000	93.4092
2646.0000	93.4226
2646.5000	93.3769
2647.0000	93.3815
2647.5000	93.3389
2648.0000	93.3448
2648.5000	93.4139
2649.0000	93.395
2649.5000	93.4002
2650.0000	93.4034
2650.5000	93.3787
2651.0000	93.3457
2651.5000	93.3807
2652.0000	93.3735
2652.5000	93.3682
