TITLE	
DATA TYPE	
ORIGIN	JASCO
OWNER	
DATE	22/08/26
TIME	11:14:15
SPECTROMETER/DATA SYSTEM	
RESOLUTION	
DELTAX	0.5
XUNITS	SEC
YUNITS	INTENSITY
FIRSTX	0.0000
LASTX	305.5000
NPOINTS	612
FIRSTY	727.12549
MAXY	727.12549
MINY	-64.38096
XYDATA
0.0000	727.125
0.5000	727.058
1.0000	727.083
1.5000	726.911
2.0000	726.916
2.5000	726.896
3.0000	726.813
3.5000	726.734
4.0000	726.674
4.5000	726.554
5.0000	726.462
5.5000	726.47
6.0000	726.267
6.5000	726.089
7.0000	725.916
7.5000	725.808
8.0000	725.823
8.5000	725.815
9.0000	725.862
9.5000	725.688
10.0000	725.453
10.5000	725.357
11.0000	725.249
11.5000	725.129
12.0000	725.276
12.5000	725.26
13.0000	725.164
13.5000	725.103
14.0000	724.916
14.5000	724.674
15.0000	724.696
15.5000	724.665
16.0000	724.56
16.5000	724.577
17.0000	724.305
17.5000	724.293
18.0000	724.281
18.5000	724.184
19.0000	724.177
19.5000	724.039
20.0000	723.97
20.5000	723.956
21.0000	722.934
21.5000	708.322
22.0000	681.898
22.5000	610.413
23.0000	-64.381
23.5000	-53.9483
24.0000	-36.8648
24.5000	-32.6885
25.0000	-31.1156
25.5000	-29.944
26.0000	-29.2434
26.5000	-28.7794
27.0000	-28.2893
27.5000	-28.1172
28.0000	-27.8317
28.5000	-27.6171
29.0000	-27.4104
29.5000	407.731
30.0000	482.908
30.5000	484.489
31.0000	485.543
31.5000	470.203
32.0000	465.414
32.5000	468.111
33.0000	471.289
33.5000	474.556
34.0000	477.769
34.5000	480.964
35.0000	484.177
35.5000	487.408
36.0000	490.66
36.5000	493.995
37.0000	497.336
37.5000	500.596
38.0000	503.889
38.5000	507.012
39.0000	510.1
39.5000	513.22
40.0000	516.265
40.5000	519.317
41.0000	522.219
41.5000	525.068
42.0000	527.902
42.5000	530.649
43.0000	533.363
43.5000	536.071
44.0000	538.684
44.5000	541.289
45.0000	543.964
45.5000	546.49
46.0000	548.97
46.5000	551.381
47.0000	553.695
47.5000	556.004
48.0000	558.271
48.5000	560.51
49.0000	562.795
49.5000	565.032
50.0000	567.242
50.5000	569.375
51.0000	571.41
51.5000	573.485
52.0000	575.537
52.5000	577.569
53.0000	579.532
53.5000	581.374
54.0000	583.195
54.5000	585.122
55.0000	586.984
55.5000	588.887
56.0000	590.704
56.5000	592.402
57.0000	594.029
57.5000	595.695
58.0000	597.404
58.5000	599.134
59.0000	600.856
59.5000	602.491
60.0000	604.014
60.5000	605.575
61.0000	607.168
61.5000	608.625
62.0000	610.165
62.5000	611.642
63.0000	613.078
63.5000	614.589
64.0000	615.982
64.5000	617.303
65.0000	618.82
65.5000	620.201
66.0000	621.516
66.5000	622.886
67.0000	623.991
67.5000	625.247
68.0000	626.508
68.5000	627.763
69.0000	629.057
69.5000	630.308
70.0000	631.584
70.5000	632.667
71.0000	633.843
71.5000	635.053
72.0000	636.156
72.5000	637.313
73.0000	638.52
73.5000	639.588
74.0000	640.701
74.5000	641.838
75.0000	642.753
75.5000	643.769
76.0000	644.795
76.5000	645.899
77.0000	647.117
77.5000	648.215
78.0000	649.28
78.5000	650.278
79.0000	651.203
79.5000	651.98
80.0000	652.943
80.5000	653.77
81.0000	654.667
81.5000	655.654
82.0000	656.542
82.5000	657.425
83.0000	658.228
83.5000	659.135
84.0000	660.079
84.5000	660.985
85.0000	661.85
85.5000	662.662
86.0000	663.373
86.5000	664.197
87.0000	665.009
87.5000	665.791
88.0000	666.631
88.5000	667.414
89.0000	668.08
89.5000	668.963
90.0000	669.748
90.5000	670.473
91.0000	671.383
91.5000	672.024
92.0000	672.594
92.5000	673.348
93.0000	674.092
93.5000	674.772
94.0000	675.465
94.5000	676.106
95.0000	676.706
95.5000	677.441
96.0000	678.279
96.5000	679.007
97.0000	679.62
97.5000	680.193
98.0000	680.863
98.5000	681.419
99.0000	682.021
99.5000	682.654
100.0000	683.131
100.5000	683.758
101.0000	684.315
101.5000	684.849
102.0000	685.42
102.5000	685.971
103.0000	686.541
103.5000	687.07
104.0000	687.57
104.5000	688.097
105.0000	688.64
105.5000	689.191
106.0000	689.634
106.5000	690.034
107.0000	690.484
107.5000	690.919
108.0000	691.401
108.5000	691.785
109.0000	692.062
109.5000	692.359
110.0000	692.72
110.5000	693.084
111.0000	693.642
111.5000	694.108
112.0000	694.526
112.5000	695.117
113.0000	695.551
113.5000	695.974
114.0000	696.374
114.5000	696.659
115.0000	697.048
115.5000	697.477
116.0000	697.776
116.5000	698.094
117.0000	698.509
117.5000	698.844
118.0000	699.222
118.5000	699.679
119.0000	699.876
119.5000	700.179
120.0000	700.657
120.5000	700.984
121.0000	701.379
121.5000	701.762
122.0000	701.996
122.5000	702.226
123.0000	702.452
123.5000	702.652
124.0000	702.967
124.5000	703.301
125.0000	703.597
125.5000	703.843
126.0000	704.184
126.5000	704.447
127.0000	704.791
127.5000	705.162
128.0000	705.396
128.5000	705.789
129.0000	706.014
129.5000	706.232
130.0000	706.563
130.5000	706.766
131.0000	707.072
131.5000	707.381
132.0000	707.577
132.5000	707.792
133.0000	707.92
133.5000	708.14
134.0000	708.306
134.5000	708.459
135.0000	708.715
135.5000	708.957
136.0000	709.195
136.5000	709.449
137.0000	709.747
137.5000	709.828
138.0000	709.899
138.5000	710.096
139.0000	710.201
139.5000	710.407
140.0000	710.675
140.5000	710.887
141.0000	711.109
141.5000	711.422
142.0000	711.562
142.5000	711.67
143.0000	711.817
143.5000	711.778
144.0000	712.024
144.5000	712.248
145.0000	712.349
145.5000	712.604
146.0000	712.72
146.5000	712.857
147.0000	713.089
147.5000	713.235
148.0000	713.373
148.5000	713.476
149.0000	713.55
149.5000	713.635
150.0000	713.722
150.5000	713.847
151.0000	714.055
151.5000	714.33
152.0000	714.515
152.5000	714.68
153.0000	714.669
153.5000	714.802
154.0000	714.847
154.5000	714.775
155.0000	715.048
155.5000	715.042
156.0000	715.291
156.5000	715.604
157.0000	715.451
157.5000	715.6
158.0000	715.698
158.5000	715.772
159.0000	716.023
159.5000	716.119
160.0000	716.202
160.5000	716.343
161.0000	716.487
161.5000	716.643
162.0000	716.689
162.5000	716.765
163.0000	716.95
163.5000	717.01
164.0000	716.983
164.5000	717.068
165.0000	717.134
165.5000	717.38
166.0000	717.676
166.5000	717.851
167.0000	717.899
167.5000	717.889
168.0000	717.875
168.5000	717.937
169.0000	718.008
169.5000	718.135
170.0000	718.316
170.5000	718.312
171.0000	718.463
171.5000	718.518
172.0000	718.634
172.5000	718.706
173.0000	718.661
173.5000	718.605
174.0000	718.541
174.5000	718.762
175.0000	718.951
175.5000	719.082
176.0000	719.183
176.5000	719.18
177.0000	719.213
177.5000	719.208
178.0000	719.341
178.5000	719.364
179.0000	719.319
179.5000	719.382
180.0000	719.325
180.5000	719.384
181.0000	719.553
181.5000	719.747
182.0000	719.833
182.5000	719.947
183.0000	719.942
183.5000	719.961
184.0000	720.017
184.5000	720.019
185.0000	720.106
185.5000	720.133
186.0000	720.238
186.5000	720.257
187.0000	720.345
187.5000	720.331
188.0000	720.262
188.5000	720.308
189.0000	720.258
189.5000	720.345
190.0000	720.424
190.5000	720.499
191.0000	720.537
191.5000	720.58
192.0000	720.644
192.5000	720.769
193.0000	720.968
193.5000	721.02
194.0000	721.087
194.5000	721.016
195.0000	720.813
195.5000	720.825
196.0000	720.839
196.5000	720.874
197.0000	720.947
197.5000	720.977
198.0000	720.923
198.5000	721
199.0000	721.114
199.5000	721.045
200.0000	721.232
200.5000	721.115
201.0000	721.088
201.5000	721.252
202.0000	721.169
202.5000	721.221
203.0000	721.273
203.5000	721.2
204.0000	721.23
204.5000	721.267
205.0000	721.363
205.5000	721.312
206.0000	721.278
206.5000	721.396
207.0000	721.303
207.5000	721.415
208.0000	721.439
208.5000	721.333
209.0000	721.337
209.5000	721.386
210.0000	721.423
210.5000	721.567
211.0000	721.503
211.5000	721.393
212.0000	721.476
212.5000	721.382
213.0000	721.427
213.5000	721.575
214.0000	721.506
214.5000	721.497
215.0000	721.572
215.5000	721.624
216.0000	721.554
216.5000	721.568
217.0000	721.494
217.5000	721.487
218.0000	721.706
218.5000	721.842
219.0000	722.041
219.5000	721.99
220.0000	721.836
220.5000	721.803
221.0000	721.742
221.5000	721.71
222.0000	721.851
222.5000	721.823
223.0000	721.778
223.5000	721.885
224.0000	721.863
224.5000	721.949
225.0000	721.976
225.5000	721.887
226.0000	721.894
226.5000	721.847
227.0000	721.939
227.5000	722.062
228.0000	722.052
228.5000	722.139
229.0000	722.132
229.5000	722.094
230.0000	722.135
230.5000	722.008
231.0000	721.939
231.5000	721.95
232.0000	721.948
232.5000	722.019
233.0000	722.057
233.5000	721.971
234.0000	721.916
234.5000	721.994
235.0000	722.079
235.5000	722.167
236.0000	722.162
236.5000	722.057
237.0000	722.034
237.5000	722.06
238.0000	722.113
238.5000	722.073
239.0000	722.047
239.5000	721.976
240.0000	721.936
240.5000	722.043
241.0000	722.116
241.5000	722.213
242.0000	722.211
242.5000	722.186
243.0000	722.258
243.5000	722.175
244.0000	722.289
244.5000	722.292
245.0000	722.281
245.5000	722.374
246.0000	722.324
246.5000	722.288
247.0000	722.137
247.5000	722.148
248.0000	722.097
248.5000	722.081
249.0000	722.047
249.5000	721.917
250.0000	722.029
250.5000	722.153
251.0000	722.164
251.5000	722.248
252.0000	722.233
252.5000	722.241
253.0000	722.348
253.5000	722.405
254.0000	722.49
254.5000	722.465
255.0000	722.467
255.5000	722.428
256.0000	722.324
256.5000	722.323
257.0000	722.209
257.5000	722.155
258.0000	722.162
258.5000	722.138
259.0000	722.246
259.5000	722.365
260.0000	722.282
260.5000	722.245
261.0000	722.26
261.5000	722.13
262.0000	722.205
262.5000	722.203
263.0000	722.116
263.5000	722.239
264.0000	722.24
264.5000	722.235
265.0000	722.27
265.5000	722.185
266.0000	722.178
266.5000	722.142
267.0000	722.141
267.5000	722.165
268.0000	722.134
268.5000	722.153
269.0000	722.054
269.5000	721.966
270.0000	721.867
270.5000	721.903
271.0000	721.914
271.5000	721.989
272.0000	722.074
272.5000	722.038
273.0000	721.99
273.5000	721.933
274.0000	721.811
274.5000	721.662
275.0000	721.809
275.5000	721.765
276.0000	721.923
276.5000	722.016
277.0000	721.947
277.5000	721.875
278.0000	721.895
278.5000	721.912
279.0000	721.892
279.5000	721.959
280.0000	721.855
280.5000	721.904
281.0000	721.891
281.5000	721.926
282.0000	721.89
282.5000	721.778
283.0000	721.685
283.5000	721.586
284.0000	721.536
284.5000	721.426
285.0000	721.424
285.5000	721.441
286.0000	721.45
286.5000	721.56
287.0000	721.661
287.5000	721.673
288.0000	721.7
288.5000	721.607
289.0000	721.443
289.5000	721.394
290.0000	721.243
290.5000	721.297
291.0000	721.359
291.5000	721.323
292.0000	721.381
292.5000	721.432
293.0000	721.396
293.5000	721.422
294.0000	721.449
294.5000	721.374
295.0000	721.344
295.5000	721.346
296.0000	721.346
296.5000	721.33
297.0000	721.303
297.5000	721.222
298.0000	721.15
298.5000	721.083
299.0000	721.128
299.5000	721.116
300.0000	721.274
300.5000	721.451
301.0000	721.454
301.5000	721.464
302.0000	721.335
302.5000	721.217
303.0000	721.115
303.5000	721.221
304.0000	721.117
304.5000	721.085
305.0000	721.218
305.5000	721.185
