TITLE	
DATA TYPE	
ORIGIN	JASCO
OWNER	
DATE	22/08/25
TIME	15:23:26
SPECTROMETER/DATA SYSTEM	
RESOLUTION	
DELTAX	0.5
XUNITS	SEC
YUNITS	INTENSITY
FIRSTX	0.0000
LASTX	1596.0000
NPOINTS	3193
FIRSTY	536.30737
MAXY	677.85559
MINY	-59.52715
XYDATA
0.0000	536.307
0.5000	536.194
1.0000	536.144
1.5000	536.146
2.0000	536.115
2.5000	536.012
3.0000	535.942
3.5000	535.856
4.0000	535.752
4.5000	535.806
5.0000	535.764
5.5000	535.676
6.0000	535.597
6.5000	535.508
7.0000	535.457
7.5000	535.52
8.0000	535.551
8.5000	535.552
9.0000	535.474
9.5000	535.381
10.0000	535.341
10.5000	535.272
11.0000	535.399
11.5000	535.435
12.0000	535.455
12.5000	535.515
13.0000	535.435
13.5000	535.359
14.0000	535.301
14.5000	535.191
15.0000	535.134
15.5000	535.168
16.0000	535.223
16.5000	535.366
17.0000	535.437
17.5000	535.499
18.0000	535.49
18.5000	535.382
19.0000	535.402
19.5000	535.388
20.0000	535.385
20.5000	535.481
21.0000	535.441
21.5000	535.373
22.0000	530.305
22.5000	515.3
23.0000	481.928
23.5000	306.536
24.0000	-59.5271
24.5000	-36.8174
25.0000	-32.0353
25.5000	-30.3434
26.0000	-29.2724
26.5000	-28.77
27.0000	-28.2883
27.5000	-27.9354
28.0000	-27.7982
28.5000	-27.5476
29.0000	-27.4098
29.5000	-27.1386
30.0000	-27.0618
30.5000	262.037
31.0000	354.77
31.5000	355.707
32.0000	355.906
32.5000	342.633
33.0000	338.199
33.5000	338.142
34.0000	338.304
34.5000	338.58
35.0000	338.956
35.5000	339.328
36.0000	339.732
36.5000	340.132
37.0000	340.597
37.5000	341.053
38.0000	341.45
38.5000	341.842
39.0000	342.102
39.5000	342.25
40.0000	342.305
40.5000	342.269
41.0000	342.323
41.5000	342.53
42.0000	342.928
42.5000	343.554
43.0000	344.278
43.5000	345.03
44.0000	345.695
44.5000	346.283
45.0000	346.753
45.5000	347.191
46.0000	347.676
46.5000	348.112
47.0000	348.578
47.5000	349.038
48.0000	349.512
48.5000	349.919
49.0000	350.375
49.5000	350.786
50.0000	351.201
50.5000	351.683
51.0000	352.107
51.5000	352.534
52.0000	352.92
52.5000	353.356
53.0000	353.775
53.5000	354.241
54.0000	354.774
54.5000	355.209
55.0000	355.64
55.5000	356.067
56.0000	356.471
56.5000	356.911
57.0000	357.403
57.5000	357.862
58.0000	358.277
58.5000	358.737
59.0000	359.154
59.5000	359.6
60.0000	360.051
60.5000	360.501
61.0000	360.9
61.5000	361.358
62.0000	361.833
62.5000	362.222
63.0000	362.677
63.5000	363.109
64.0000	363.528
64.5000	364.013
65.0000	364.478
65.5000	364.936
66.0000	365.411
66.5000	365.863
67.0000	366.312
67.5000	366.755
68.0000	367.172
68.5000	367.585
69.0000	368.035
69.5000	368.482
70.0000	368.922
70.5000	369.348
71.0000	369.752
71.5000	370.182
72.0000	370.557
72.5000	370.945
73.0000	371.399
73.5000	371.815
74.0000	372.336
74.5000	372.79
75.0000	373.223
75.5000	373.649
76.0000	374.079
76.5000	374.609
77.0000	375.09
77.5000	375.577
78.0000	376.006
78.5000	376.364
79.0000	376.707
79.5000	377.11
80.0000	377.559
80.5000	378.007
81.0000	378.538
81.5000	379.004
82.0000	379.451
82.5000	379.939
83.0000	380.358
83.5000	380.792
84.0000	381.18
84.5000	381.494
85.0000	381.961
85.5000	382.377
86.0000	382.804
86.5000	383.301
87.0000	383.669
87.5000	384.038
88.0000	384.541
88.5000	384.951
89.0000	385.392
89.5000	385.924
90.0000	386.316
90.5000	386.768
91.0000	387.219
91.5000	387.63
92.0000	388.049
92.5000	388.579
93.0000	389.019
93.5000	389.419
94.0000	389.806
94.5000	390.158
95.0000	390.598
95.5000	391.016
96.0000	391.46
96.5000	391.9
97.0000	392.297
97.5000	392.719
98.0000	393.102
98.5000	393.538
99.0000	393.951
99.5000	394.401
100.0000	394.904
100.5000	395.356
101.0000	395.865
101.5000	396.311
102.0000	396.726
102.5000	397.1
103.0000	397.467
103.5000	397.855
104.0000	398.257
104.5000	398.659
105.0000	399.102
105.5000	399.582
106.0000	400.001
106.5000	400.514
107.0000	400.892
107.5000	401.318
108.0000	401.753
108.5000	402.137
109.0000	402.598
109.5000	402.981
110.0000	403.378
110.5000	403.81
111.0000	404.216
111.5000	404.66
112.0000	405.118
112.5000	405.479
113.0000	405.866
113.5000	406.258
114.0000	406.711
114.5000	407.181
115.0000	407.624
115.5000	408.057
116.0000	408.498
116.5000	408.875
117.0000	409.265
117.5000	409.679
118.0000	410.072
118.5000	410.544
119.0000	410.975
119.5000	411.408
120.0000	411.806
120.5000	412.168
121.0000	412.602
121.5000	412.937
122.0000	413.258
122.5000	413.642
123.0000	413.996
123.5000	414.481
124.0000	414.949
124.5000	415.378
125.0000	415.807
125.5000	416.156
126.0000	416.57
126.5000	416.934
127.0000	417.356
127.5000	417.732
128.0000	418.124
128.5000	418.55
129.0000	418.904
129.5000	419.352
130.0000	419.742
130.5000	420.126
131.0000	420.528
131.5000	420.897
132.0000	421.303
132.5000	421.719
133.0000	422.151
133.5000	422.555
134.0000	422.906
134.5000	423.221
135.0000	423.592
135.5000	423.998
136.0000	424.408
136.5000	424.86
137.0000	425.253
137.5000	425.563
138.0000	425.938
138.5000	426.322
139.0000	426.664
139.5000	427.103
140.0000	427.54
140.5000	427.965
141.0000	428.375
141.5000	428.792
142.0000	429.102
142.5000	429.458
143.0000	429.894
143.5000	430.24
144.0000	430.651
144.5000	431.036
145.0000	431.367
145.5000	431.692
146.0000	432.036
146.5000	432.369
147.0000	432.743
147.5000	433.206
148.0000	433.649
148.5000	434.029
149.0000	434.34
149.5000	434.675
150.0000	435.057
150.5000	435.453
151.0000	435.85
151.5000	436.205
152.0000	436.53
152.5000	436.887
153.0000	437.331
153.5000	437.743
154.0000	438.093
154.5000	438.419
155.0000	438.748
155.5000	439.054
156.0000	439.455
156.5000	439.882
157.0000	440.292
157.5000	440.709
158.0000	441.121
158.5000	441.52
159.0000	441.853
159.5000	442.153
160.0000	442.475
160.5000	442.791
161.0000	443.136
161.5000	443.568
162.0000	443.914
162.5000	444.312
163.0000	444.67
163.5000	444.985
164.0000	445.374
164.5000	445.694
165.0000	446.062
165.5000	446.358
166.0000	446.708
166.5000	447.021
167.0000	447.346
167.5000	447.752
168.0000	448.098
168.5000	448.502
169.0000	448.883
169.5000	449.228
170.0000	449.515
170.5000	449.815
171.0000	450.171
171.5000	450.511
172.0000	450.868
172.5000	451.227
173.0000	451.583
173.5000	451.919
174.0000	452.237
174.5000	452.587
175.0000	452.858
175.5000	453.217
176.0000	453.567
176.5000	453.874
177.0000	454.26
177.5000	454.647
178.0000	454.976
178.5000	455.339
179.0000	455.669
179.5000	455.911
180.0000	456.332
180.5000	456.679
181.0000	456.995
181.5000	457.418
182.0000	457.703
182.5000	457.994
183.0000	458.341
183.5000	458.666
184.0000	459
184.5000	459.364
185.0000	459.657
185.5000	460.02
186.0000	460.416
186.5000	460.756
187.0000	461.108
187.5000	461.423
188.0000	461.613
188.5000	461.975
189.0000	462.329
189.5000	462.554
190.0000	462.925
190.5000	463.147
191.0000	463.491
191.5000	463.87
192.0000	464.189
192.5000	464.573
193.0000	464.87
193.5000	465.208
194.0000	465.49
194.5000	465.815
195.0000	466.158
195.5000	466.401
196.0000	466.801
196.5000	467.061
197.0000	467.345
197.5000	467.669
198.0000	467.941
198.5000	468.358
199.0000	468.629
199.5000	469.03
200.0000	469.307
200.5000	469.551
201.0000	469.817
201.5000	470.097
202.0000	470.513
202.5000	470.813
203.0000	471.188
203.5000	471.454
204.0000	471.689
204.5000	472.032
205.0000	472.33
205.5000	472.64
206.0000	472.984
206.5000	473.278
207.0000	473.657
207.5000	473.962
208.0000	474.212
208.5000	474.496
209.0000	474.714
209.5000	475.065
210.0000	475.342
210.5000	475.636
211.0000	475.968
211.5000	476.221
212.0000	476.56
212.5000	476.879
213.0000	477.209
213.5000	477.543
214.0000	477.886
214.5000	478.172
215.0000	478.431
215.5000	478.748
216.0000	478.989
216.5000	479.296
217.0000	479.537
217.5000	479.755
218.0000	480.096
218.5000	480.392
219.0000	480.726
219.5000	481.041
220.0000	481.377
220.5000	481.688
221.0000	482.013
221.5000	482.283
222.0000	482.573
222.5000	482.818
223.0000	483.047
223.5000	483.382
224.0000	483.625
224.5000	483.873
225.0000	484.24
225.5000	484.492
226.0000	484.815
226.5000	485.161
227.0000	485.457
227.5000	485.775
228.0000	486.008
228.5000	486.295
229.0000	486.553
229.5000	486.872
230.0000	487.134
230.5000	487.4
231.0000	487.691
231.5000	487.878
232.0000	488.188
232.5000	488.517
233.0000	488.759
233.5000	489.113
234.0000	489.38
234.5000	489.652
235.0000	489.904
235.5000	490.194
236.0000	490.506
236.5000	490.711
237.0000	490.991
237.5000	491.239
238.0000	491.506
238.5000	491.766
239.0000	492.013
239.5000	492.218
240.0000	492.488
240.5000	492.846
241.0000	493.161
241.5000	493.409
242.0000	493.699
242.5000	493.924
243.0000	494.16
243.5000	494.488
244.0000	494.668
244.5000	494.987
245.0000	495.339
245.5000	495.617
246.0000	495.858
246.5000	496.014
247.0000	496.279
247.5000	496.477
248.0000	496.794
248.5000	497.172
249.0000	497.372
249.5000	497.691
250.0000	497.977
250.5000	498.235
251.0000	498.51
251.5000	498.745
252.0000	499.008
252.5000	499.215
253.0000	499.468
253.5000	499.777
254.0000	500.01
254.5000	500.251
255.0000	500.497
255.5000	500.69
256.0000	500.92
256.5000	501.198
257.0000	501.548
257.5000	501.797
258.0000	502.087
258.5000	502.253
259.0000	502.408
259.5000	502.688
260.0000	502.879
260.5000	503.274
261.0000	503.569
261.5000	503.872
262.0000	504.203
262.5000	504.371
263.0000	504.621
263.5000	504.884
264.0000	505.133
264.5000	505.419
265.0000	505.631
265.5000	505.861
266.0000	506.114
266.5000	506.374
267.0000	506.603
267.5000	506.855
268.0000	507.068
268.5000	507.283
269.0000	507.557
269.5000	507.846
270.0000	508.153
270.5000	508.415
271.0000	508.628
271.5000	508.829
272.0000	509.014
272.5000	509.244
273.0000	509.49
273.5000	509.761
274.0000	510.097
274.5000	510.349
275.0000	510.586
275.5000	510.741
276.0000	510.906
276.5000	511.12
277.0000	511.452
277.5000	511.754
278.0000	511.965
278.5000	512.195
279.0000	512.399
279.5000	512.672
280.0000	512.865
280.5000	513.083
281.0000	513.257
281.5000	513.417
282.0000	513.722
282.5000	514.022
283.0000	514.302
283.5000	514.462
284.0000	514.675
284.5000	514.928
285.0000	515.117
285.5000	515.469
286.0000	515.769
286.5000	515.979
287.0000	516.271
287.5000	516.428
288.0000	516.675
288.5000	516.902
289.0000	517.141
289.5000	517.426
290.0000	517.61
290.5000	517.895
291.0000	518.151
291.5000	518.298
292.0000	518.53
292.5000	518.724
293.0000	518.957
293.5000	519.26
294.0000	519.467
294.5000	519.695
295.0000	519.943
295.5000	520.224
296.0000	520.503
296.5000	520.755
297.0000	521.01
297.5000	521.148
298.0000	521.347
298.5000	521.512
299.0000	521.702
299.5000	521.976
300.0000	522.24
300.5000	522.519
301.0000	522.74
301.5000	522.954
302.0000	523.116
302.5000	523.438
303.0000	523.624
303.5000	523.93
304.0000	524.16
304.5000	524.373
305.0000	524.592
305.5000	524.771
306.0000	525.084
306.5000	525.13
307.0000	525.379
307.5000	525.618
308.0000	525.765
308.5000	526.089
309.0000	526.305
309.5000	526.543
310.0000	526.759
310.5000	527.028
311.0000	527.244
311.5000	527.549
312.0000	527.786
312.5000	527.956
313.0000	528.22
313.5000	528.305
314.0000	528.513
314.5000	528.751
315.0000	528.964
315.5000	529.217
316.0000	529.538
316.5000	529.713
317.0000	529.935
317.5000	530.13
318.0000	530.311
318.5000	530.57
319.0000	530.76
319.5000	531.052
320.0000	531.24
320.5000	531.458
321.0000	531.695
321.5000	531.827
322.0000	532.064
322.5000	532.308
323.0000	532.531
323.5000	532.773
324.0000	532.983
324.5000	533.227
325.0000	533.485
325.5000	533.707
326.0000	533.886
326.5000	533.997
327.0000	534.153
327.5000	534.314
328.0000	534.609
328.5000	534.82
329.0000	534.992
329.5000	535.248
330.0000	535.465
330.5000	535.7
331.0000	535.94
331.5000	536.16
332.0000	536.324
332.5000	536.573
333.0000	536.756
333.5000	536.89
334.0000	537.069
334.5000	537.189
335.0000	537.482
335.5000	537.746
336.0000	537.898
336.5000	538.262
337.0000	538.496
337.5000	538.674
338.0000	538.855
338.5000	538.984
339.0000	539.096
339.5000	539.356
340.0000	539.665
340.5000	539.875
341.0000	540.158
341.5000	540.359
342.0000	540.561
342.5000	540.804
343.0000	540.934
343.5000	541.152
344.0000	541.357
344.5000	541.52
345.0000	541.788
345.5000	542.021
346.0000	542.225
346.5000	542.357
347.0000	542.538
347.5000	542.767
348.0000	543.013
348.5000	543.329
349.0000	543.517
349.5000	543.671
350.0000	543.835
350.5000	544.024
351.0000	544.188
351.5000	544.394
352.0000	544.554
352.5000	544.659
353.0000	544.944
353.5000	545.033
354.0000	545.331
354.5000	545.583
355.0000	545.693
355.5000	546.063
356.0000	546.214
356.5000	546.477
357.0000	546.749
357.5000	546.856
358.0000	547.048
358.5000	547.221
359.0000	547.406
359.5000	547.612
360.0000	547.794
360.5000	547.991
361.0000	548.164
361.5000	548.444
362.0000	548.744
362.5000	548.901
363.0000	549.087
363.5000	549.16
364.0000	549.214
364.5000	549.443
365.0000	549.588
365.5000	549.847
366.0000	550.084
366.5000	550.264
367.0000	550.557
367.5000	550.739
368.0000	550.972
368.5000	551.252
369.0000	551.383
369.5000	551.621
370.0000	551.707
370.5000	551.794
371.0000	551.965
371.5000	552.113
372.0000	552.384
372.5000	552.524
373.0000	552.717
373.5000	552.982
374.0000	553.163
374.5000	553.428
375.0000	553.706
375.5000	553.795
376.0000	554.039
376.5000	554.273
377.0000	554.431
377.5000	554.625
378.0000	554.808
378.5000	554.919
379.0000	555.063
379.5000	555.291
380.0000	555.356
380.5000	555.575
381.0000	555.8
381.5000	555.995
382.0000	556.266
382.5000	556.379
383.0000	556.504
383.5000	556.629
384.0000	556.726
384.5000	556.964
385.0000	557.292
385.5000	557.516
386.0000	557.683
386.5000	557.851
387.0000	557.94
387.5000	558.114
388.0000	558.485
388.5000	558.743
389.0000	558.928
389.5000	559.107
390.0000	559.201
390.5000	559.3
391.0000	559.432
391.5000	559.62
392.0000	559.829
392.5000	560.002
393.0000	560.268
393.5000	560.554
394.0000	560.669
394.5000	560.836
395.0000	560.989
395.5000	561.078
396.0000	561.298
396.5000	561.527
397.0000	561.714
397.5000	561.857
398.0000	562.008
398.5000	562.18
399.0000	562.306
399.5000	562.538
400.0000	562.821
400.5000	562.936
401.0000	563.122
401.5000	563.267
402.0000	563.372
402.5000	563.661
403.0000	563.961
403.5000	564.053
404.0000	564.214
404.5000	564.374
405.0000	564.546
405.5000	564.772
406.0000	564.994
406.5000	565.092
407.0000	565.112
407.5000	565.372
408.0000	565.58
408.5000	565.83
409.0000	566.107
409.5000	566.229
410.0000	566.335
410.5000	566.501
411.0000	566.629
411.5000	566.776
412.0000	566.952
412.5000	567.169
413.0000	567.394
413.5000	567.581
414.0000	567.758
414.5000	567.954
415.0000	568.119
415.5000	568.317
416.0000	568.541
416.5000	568.638
417.0000	568.831
417.5000	569.039
418.0000	569.185
418.5000	569.386
419.0000	569.566
419.5000	569.702
420.0000	569.845
420.5000	570.003
421.0000	570.13
421.5000	570.268
422.0000	570.427
422.5000	570.6
423.0000	570.713
423.5000	570.951
424.0000	571.163
424.5000	571.283
425.0000	571.605
425.5000	571.711
426.0000	571.802
426.5000	572.004
427.0000	572.08
427.5000	572.334
428.0000	572.517
428.5000	572.644
429.0000	572.815
429.5000	572.901
430.0000	573.085
430.5000	573.338
431.0000	573.504
431.5000	573.645
432.0000	573.859
432.5000	573.996
433.0000	574.146
433.5000	574.352
434.0000	574.508
434.5000	574.619
435.0000	574.772
435.5000	574.93
436.0000	575.076
436.5000	575.309
437.0000	575.489
437.5000	575.695
438.0000	575.97
438.5000	576.075
439.0000	576.234
439.5000	576.349
440.0000	576.47
440.5000	576.725
441.0000	576.873
441.5000	577.008
442.0000	577.094
442.5000	577.244
443.0000	577.382
443.5000	577.654
444.0000	577.827
444.5000	577.928
445.0000	578.128
445.5000	578.256
446.0000	578.359
446.5000	578.553
447.0000	578.671
447.5000	578.716
448.0000	578.953
448.5000	579.102
449.0000	579.218
449.5000	579.436
450.0000	579.542
450.5000	579.674
451.0000	579.953
451.5000	580.131
452.0000	580.245
452.5000	580.478
453.0000	580.623
453.5000	580.779
454.0000	581.051
454.5000	581.188
455.0000	581.308
455.5000	581.411
456.0000	581.478
456.5000	581.557
457.0000	581.734
457.5000	581.915
458.0000	582.107
458.5000	582.284
459.0000	582.474
459.5000	582.649
460.0000	582.841
460.5000	582.999
461.0000	583.118
461.5000	583.275
462.0000	583.316
462.5000	583.447
463.0000	583.59
463.5000	583.661
464.0000	583.827
464.5000	583.988
465.0000	584.156
465.5000	584.38
466.0000	584.571
466.5000	584.693
467.0000	584.777
467.5000	584.895
468.0000	585.081
468.5000	585.256
469.0000	585.544
469.5000	585.745
470.0000	585.812
470.5000	585.97
471.0000	586.022
471.5000	586.259
472.0000	586.486
472.5000	586.619
473.0000	586.675
473.5000	586.771
474.0000	586.862
474.5000	586.912
475.0000	587.186
475.5000	587.214
476.0000	587.394
476.5000	587.636
477.0000	587.751
477.5000	587.942
478.0000	588.012
478.5000	588.208
479.0000	588.428
479.5000	588.578
480.0000	588.713
480.5000	588.792
481.0000	588.835
481.5000	588.916
482.0000	589.086
482.5000	589.18
483.0000	589.318
483.5000	589.513
484.0000	589.707
484.5000	589.793
485.0000	589.903
485.5000	590.045
486.0000	590.181
486.5000	590.338
487.0000	590.487
487.5000	590.654
488.0000	590.725
488.5000	590.956
489.0000	591.093
489.5000	591.148
490.0000	591.335
490.5000	591.394
491.0000	591.586
491.5000	591.742
492.0000	591.874
492.5000	591.966
493.0000	592.024
493.5000	592.139
494.0000	592.247
494.5000	592.474
495.0000	592.54
495.5000	592.718
496.0000	592.831
496.5000	592.988
497.0000	593.251
497.5000	593.424
498.0000	593.705
498.5000	593.827
499.0000	593.98
499.5000	594.09
500.0000	594.08
500.5000	594.225
501.0000	594.303
501.5000	594.45
502.0000	594.568
502.5000	594.656
503.0000	594.877
503.5000	594.991
504.0000	595.161
504.5000	595.398
505.0000	595.385
505.5000	595.498
506.0000	595.627
506.5000	595.608
507.0000	595.78
507.5000	595.934
508.0000	596.177
508.5000	596.331
509.0000	596.436
509.5000	596.579
510.0000	596.574
510.5000	596.713
511.0000	596.895
511.5000	597.012
512.0000	597.187
512.5000	597.342
513.0000	597.47
513.5000	597.591
514.0000	597.682
514.5000	597.745
515.0000	597.859
515.5000	598.013
516.0000	598.154
516.5000	598.435
517.0000	598.619
517.5000	598.675
518.0000	598.821
518.5000	598.81
519.0000	598.931
519.5000	599.117
520.0000	599.285
520.5000	599.464
521.0000	599.633
521.5000	599.707
522.0000	599.787
522.5000	599.869
523.0000	599.961
523.5000	600.054
524.0000	600.136
524.5000	600.385
525.0000	600.483
525.5000	600.641
526.0000	600.821
526.5000	600.917
527.0000	600.974
527.5000	601.049
528.0000	601.147
528.5000	601.253
529.0000	601.452
529.5000	601.746
530.0000	601.851
530.5000	602.054
531.0000	602.22
531.5000	602.286
532.0000	602.428
532.5000	602.477
533.0000	602.545
533.5000	602.601
534.0000	602.727
534.5000	602.824
535.0000	602.858
535.5000	603.048
536.0000	603.131
536.5000	603.291
537.0000	603.454
537.5000	603.593
538.0000	603.796
538.5000	603.911
539.0000	604.097
539.5000	604.098
540.0000	604.208
540.5000	604.33
541.0000	604.386
541.5000	604.554
542.0000	604.683
542.5000	604.742
543.0000	604.849
543.5000	605.078
544.0000	605.254
544.5000	605.456
545.0000	605.618
545.5000	605.641
546.0000	605.667
546.5000	605.689
547.0000	605.855
547.5000	605.978
548.0000	606.078
548.5000	606.233
549.0000	606.295
549.5000	606.436
550.0000	606.525
550.5000	606.631
551.0000	606.741
551.5000	606.927
552.0000	607.042
552.5000	607.2
553.0000	607.313
553.5000	607.339
554.0000	607.458
554.5000	607.577
555.0000	607.652
555.5000	607.734
556.0000	607.885
556.5000	607.975
557.0000	608.191
557.5000	608.356
558.0000	608.531
558.5000	608.617
559.0000	608.703
559.5000	608.738
560.0000	608.771
560.5000	608.871
561.0000	608.994
561.5000	609.158
562.0000	609.347
562.5000	609.451
563.0000	609.434
563.5000	609.512
564.0000	609.569
564.5000	609.741
565.0000	609.885
565.5000	610.043
566.0000	610.127
566.5000	610.172
567.0000	610.371
567.5000	610.516
568.0000	610.695
568.5000	610.823
569.0000	610.939
569.5000	611.011
570.0000	611.016
570.5000	611.126
571.0000	611.188
571.5000	611.203
572.0000	611.332
572.5000	611.309
573.0000	611.423
573.5000	611.588
574.0000	611.647
574.5000	611.844
575.0000	611.896
575.5000	612.046
576.0000	612.151
576.5000	612.315
577.0000	612.413
577.5000	612.468
578.0000	612.681
578.5000	612.714
579.0000	612.833
579.5000	612.842
580.0000	612.902
580.5000	613.024
581.0000	613.197
581.5000	613.425
582.0000	613.518
582.5000	613.569
583.0000	613.576
583.5000	613.614
584.0000	613.707
584.5000	613.953
585.0000	614.047
585.5000	614.209
586.0000	614.325
586.5000	614.371
587.0000	614.538
587.5000	614.564
588.0000	614.66
588.5000	614.83
589.0000	614.852
589.5000	615.03
590.0000	615.159
590.5000	615.124
591.0000	615.278
591.5000	615.331
592.0000	615.323
592.5000	615.468
593.0000	615.564
593.5000	615.665
594.0000	615.809
594.5000	615.934
595.0000	616.041
595.5000	616.188
596.0000	616.347
596.5000	616.362
597.0000	616.481
597.5000	616.579
598.0000	616.65
598.5000	616.678
599.0000	616.752
599.5000	616.805
600.0000	616.865
600.5000	617.081
601.0000	617.157
601.5000	617.223
602.0000	617.261
602.5000	617.383
603.0000	617.532
603.5000	617.671
604.0000	617.841
604.5000	617.863
605.0000	617.981
605.5000	618.099
606.0000	618.199
606.5000	618.343
607.0000	618.397
607.5000	618.522
608.0000	618.653
608.5000	618.823
609.0000	618.953
609.5000	618.955
610.0000	619.058
610.5000	619.143
611.0000	619.148
611.5000	619.225
612.0000	619.284
612.5000	619.29
613.0000	619.367
613.5000	619.493
614.0000	619.544
614.5000	619.596
615.0000	619.835
615.5000	619.893
616.0000	619.983
616.5000	620.171
617.0000	620.183
617.5000	620.252
618.0000	620.399
618.5000	620.395
619.0000	620.463
619.5000	620.535
620.0000	620.564
620.5000	620.682
621.0000	620.845
621.5000	620.977
622.0000	621.124
622.5000	621.184
623.0000	621.121
623.5000	621.149
624.0000	621.213
624.5000	621.432
625.0000	621.56
625.5000	621.633
626.0000	621.765
626.5000	621.726
627.0000	621.849
627.5000	622.068
628.0000	622.213
628.5000	622.302
629.0000	622.367
629.5000	622.442
630.0000	622.494
630.5000	622.61
631.0000	622.634
631.5000	622.688
632.0000	622.681
632.5000	622.819
633.0000	623.003
633.5000	623.031
634.0000	623.234
634.5000	623.3
635.0000	623.438
635.5000	623.52
636.0000	623.537
636.5000	623.584
637.0000	623.592
637.5000	623.68
638.0000	623.742
638.5000	623.87
639.0000	623.982
639.5000	624.209
640.0000	624.285
640.5000	624.295
641.0000	624.393
641.5000	624.386
642.0000	624.452
642.5000	624.608
643.0000	624.729
643.5000	624.833
644.0000	624.974
644.5000	625.057
645.0000	625.053
645.5000	625.159
646.0000	625.211
646.5000	625.342
647.0000	625.435
647.5000	625.575
648.0000	625.693
648.5000	625.71
649.0000	625.864
649.5000	625.878
650.0000	625.854
650.5000	625.917
651.0000	625.973
651.5000	626.066
652.0000	626.275
652.5000	626.392
653.0000	626.446
653.5000	626.439
654.0000	626.538
654.5000	626.62
655.0000	626.63
655.5000	626.758
656.0000	626.804
656.5000	626.878
657.0000	627.014
657.5000	627.076
658.0000	627.172
658.5000	627.257
659.0000	627.353
659.5000	627.496
660.0000	627.486
660.5000	627.602
661.0000	627.688
661.5000	627.839
662.0000	627.935
662.5000	627.951
663.0000	628.023
663.5000	628.102
664.0000	628.22
664.5000	628.323
665.0000	628.362
665.5000	628.373
666.0000	628.44
666.5000	628.488
667.0000	628.631
667.5000	628.727
668.0000	628.783
668.5000	628.897
669.0000	629.026
669.5000	629.008
670.0000	629.192
670.5000	629.314
671.0000	629.36
671.5000	629.484
672.0000	629.555
672.5000	629.621
673.0000	629.661
673.5000	629.735
674.0000	629.758
674.5000	629.787
675.0000	629.831
675.5000	629.925
676.0000	629.991
676.5000	630.113
677.0000	630.324
677.5000	630.404
678.0000	630.42
678.5000	630.577
679.0000	630.568
679.5000	630.686
680.0000	630.86
680.5000	630.818
681.0000	630.943
681.5000	631.068
682.0000	631.049
682.5000	631.083
683.0000	631.116
683.5000	631.221
684.0000	631.35
684.5000	631.493
685.0000	631.566
685.5000	631.608
686.0000	631.674
686.5000	631.878
687.0000	632.052
687.5000	632.022
688.0000	632.106
688.5000	632.158
689.0000	632.123
689.5000	632.161
690.0000	632.372
690.5000	632.36
691.0000	632.456
691.5000	632.594
692.0000	632.602
692.5000	632.746
693.0000	632.846
693.5000	632.924
694.0000	632.949
694.5000	632.963
695.0000	632.969
695.5000	633.051
696.0000	633.144
696.5000	633.116
697.0000	633.215
697.5000	633.27
698.0000	633.35
698.5000	633.478
699.0000	633.61
699.5000	633.724
700.0000	633.816
700.5000	633.944
701.0000	633.924
701.5000	634.013
702.0000	634.045
702.5000	634.233
703.0000	634.335
703.5000	634.371
704.0000	634.497
704.5000	634.565
705.0000	634.737
705.5000	634.847
706.0000	634.905
706.5000	634.777
707.0000	634.753
707.5000	634.868
708.0000	634.989
708.5000	635.11
709.0000	635.259
709.5000	635.184
710.0000	635.212
710.5000	635.267
711.0000	635.233
711.5000	635.448
712.0000	635.59
712.5000	635.729
713.0000	635.845
713.5000	635.892
714.0000	635.906
714.5000	635.946
715.0000	635.97
715.5000	635.953
716.0000	636.047
716.5000	636.2
717.0000	636.287
717.5000	636.413
718.0000	636.398
718.5000	636.416
719.0000	636.604
719.5000	636.706
720.0000	636.853
720.5000	636.947
721.0000	636.918
721.5000	636.935
722.0000	637.014
722.5000	637.047
723.0000	637.152
723.5000	637.231
724.0000	637.257
724.5000	637.358
725.0000	637.447
725.5000	637.489
726.0000	637.523
726.5000	637.543
727.0000	637.627
727.5000	637.818
728.0000	637.864
728.5000	637.922
729.0000	638.002
729.5000	638.011
730.0000	638.054
730.5000	638.119
731.0000	638.151
731.5000	638.227
732.0000	638.388
732.5000	638.423
733.0000	638.52
733.5000	638.64
734.0000	638.641
734.5000	638.771
735.0000	638.795
735.5000	638.76
736.0000	638.946
736.5000	638.978
737.0000	639.03
737.5000	639.145
738.0000	639.093
738.5000	639.222
739.0000	639.227
739.5000	639.172
740.0000	639.24
740.5000	639.224
741.0000	639.285
741.5000	639.456
742.0000	639.497
742.5000	639.603
743.0000	639.758
743.5000	639.861
744.0000	639.96
744.5000	640.005
745.0000	639.978
745.5000	639.914
746.0000	639.985
746.5000	640.021
747.0000	640.223
747.5000	640.371
748.0000	640.43
748.5000	640.523
749.0000	640.527
749.5000	640.587
750.0000	640.632
750.5000	640.755
751.0000	640.853
751.5000	640.969
752.0000	641.095
752.5000	640.996
753.0000	641.074
753.5000	641.151
754.0000	641.119
754.5000	641.322
755.0000	641.282
755.5000	641.264
756.0000	641.369
756.5000	641.36
757.0000	641.39
757.5000	641.513
758.0000	641.527
758.5000	641.59
759.0000	641.748
759.5000	641.752
760.0000	641.898
760.5000	641.981
761.0000	642.031
761.5000	642.122
762.0000	642.159
762.5000	642.281
763.0000	642.393
763.5000	642.472
764.0000	642.572
764.5000	642.607
765.0000	642.63
765.5000	642.652
766.0000	642.689
766.5000	642.642
767.0000	642.734
767.5000	642.865
768.0000	643.012
768.5000	643.195
769.0000	643.202
769.5000	643.177
770.0000	643.178
770.5000	643.241
771.0000	643.204
771.5000	643.214
772.0000	643.23
772.5000	643.29
773.0000	643.521
773.5000	643.65
774.0000	643.699
774.5000	643.744
775.0000	643.707
775.5000	643.807
776.0000	643.992
776.5000	643.972
777.0000	644.063
777.5000	643.979
778.0000	643.994
778.5000	644.104
779.0000	644.152
779.5000	644.272
780.0000	644.258
780.5000	644.37
781.0000	644.477
781.5000	644.523
782.0000	644.615
782.5000	644.655
783.0000	644.647
783.5000	644.713
784.0000	644.717
784.5000	644.772
785.0000	644.833
785.5000	644.894
786.0000	645.076
786.5000	645.129
787.0000	645.237
787.5000	645.39
788.0000	645.391
788.5000	645.43
789.0000	645.415
789.5000	645.342
790.0000	645.42
790.5000	645.461
791.0000	645.518
791.5000	645.635
792.0000	645.616
792.5000	645.737
793.0000	645.846
793.5000	645.923
794.0000	645.954
794.5000	645.942
795.0000	645.913
795.5000	646.015
796.0000	646.136
796.5000	646.285
797.0000	646.439
797.5000	646.483
798.0000	646.568
798.5000	646.529
799.0000	646.635
799.5000	646.631
800.0000	646.704
800.5000	646.789
801.0000	646.783
801.5000	646.81
802.0000	646.848
802.5000	646.929
803.0000	646.962
803.5000	647.057
804.0000	647.073
804.5000	647.164
805.0000	647.202
805.5000	647.352
806.0000	647.492
806.5000	647.483
807.0000	647.498
807.5000	647.513
808.0000	647.428
808.5000	647.516
809.0000	647.686
809.5000	647.723
810.0000	647.839
810.5000	647.926
811.0000	647.896
811.5000	647.922
812.0000	647.904
812.5000	647.969
813.0000	648.007
813.5000	648
814.0000	648.101
814.5000	648.104
815.0000	648.232
815.5000	648.363
816.0000	648.414
816.5000	648.425
817.0000	648.464
817.5000	648.491
818.0000	648.494
818.5000	648.589
819.0000	648.649
819.5000	648.769
820.0000	648.868
820.5000	648.881
821.0000	648.89
821.5000	648.942
822.0000	649.004
822.5000	649.101
823.0000	649.268
823.5000	649.235
824.0000	649.393
824.5000	649.394
825.0000	649.353
825.5000	649.449
826.0000	649.304
826.5000	649.371
827.0000	649.423
827.5000	649.444
828.0000	649.585
828.5000	649.637
829.0000	649.638
829.5000	649.703
830.0000	649.74
830.5000	649.775
831.0000	649.86
831.5000	649.904
832.0000	649.984
832.5000	650.087
833.0000	650.246
833.5000	650.295
834.0000	650.279
834.5000	650.277
835.0000	650.306
835.5000	650.297
836.0000	650.449
836.5000	650.483
837.0000	650.488
837.5000	650.546
838.0000	650.566
838.5000	650.674
839.0000	650.655
839.5000	650.803
840.0000	650.811
840.5000	650.831
841.0000	650.913
841.5000	650.845
842.0000	650.97
842.5000	651.063
843.0000	651.145
843.5000	651.327
844.0000	651.318
844.5000	651.291
845.0000	651.312
845.5000	651.313
846.0000	651.366
846.5000	651.459
847.0000	651.456
847.5000	651.453
848.0000	651.569
848.5000	651.616
849.0000	651.66
849.5000	651.733
850.0000	651.784
850.5000	651.779
851.0000	651.95
851.5000	651.999
852.0000	652.003
852.5000	652.097
853.0000	652.104
853.5000	652.143
854.0000	652.117
854.5000	652.213
855.0000	652.213
855.5000	652.162
856.0000	652.213
856.5000	652.275
857.0000	652.331
857.5000	652.416
858.0000	652.52
858.5000	652.539
859.0000	652.571
859.5000	652.646
860.0000	652.663
860.5000	652.636
861.0000	652.733
861.5000	652.79
862.0000	652.892
862.5000	652.826
863.0000	652.863
863.5000	652.984
864.0000	653.006
864.5000	653.119
865.0000	653.074
865.5000	653.001
866.0000	653.015
866.5000	653.052
867.0000	653.177
867.5000	653.37
868.0000	653.501
868.5000	653.56
869.0000	653.584
869.5000	653.496
870.0000	653.491
870.5000	653.531
871.0000	653.614
871.5000	653.675
872.0000	653.709
872.5000	653.829
873.0000	653.954
873.5000	653.954
874.0000	653.972
874.5000	654.071
875.0000	653.977
875.5000	654.063
876.0000	654.09
876.5000	653.993
877.0000	653.965
877.5000	654.088
878.0000	654.092
878.5000	654.202
879.0000	654.361
879.5000	654.271
880.0000	654.301
880.5000	654.264
881.0000	654.211
881.5000	654.284
882.0000	654.321
882.5000	654.389
883.0000	654.51
883.5000	654.508
884.0000	654.507
884.5000	654.545
885.0000	654.529
885.5000	654.56
886.0000	654.65
886.5000	654.646
887.0000	654.687
887.5000	654.832
888.0000	654.934
888.5000	655.032
889.0000	655.007
889.5000	654.934
890.0000	654.873
890.5000	655.001
891.0000	655.078
891.5000	655.183
892.0000	655.382
892.5000	655.24
893.0000	655.271
893.5000	655.375
894.0000	655.308
894.5000	655.393
895.0000	655.397
895.5000	655.336
896.0000	655.311
896.5000	655.371
897.0000	655.46
897.5000	655.537
898.0000	655.579
898.5000	655.514
899.0000	655.59
899.5000	655.653
900.0000	655.703
900.5000	655.825
901.0000	655.865
901.5000	655.794
902.0000	655.873
902.5000	655.895
903.0000	655.747
903.5000	655.837
904.0000	655.855
904.5000	655.942
905.0000	656.057
905.5000	656.099
906.0000	656.062
906.5000	656.075
907.0000	656.199
907.5000	656.126
908.0000	656.298
908.5000	656.308
909.0000	656.357
909.5000	656.491
910.0000	656.437
910.5000	656.478
911.0000	656.486
911.5000	656.555
912.0000	656.578
912.5000	656.639
913.0000	656.706
913.5000	656.709
914.0000	656.758
914.5000	656.701
915.0000	656.708
915.5000	656.67
916.0000	656.648
916.5000	656.737
917.0000	656.705
917.5000	656.824
918.0000	656.943
918.5000	656.967
919.0000	656.953
919.5000	656.903
920.0000	656.933
920.5000	656.874
921.0000	656.9
921.5000	656.942
922.0000	656.95
922.5000	656.994
923.0000	657.042
923.5000	657.104
924.0000	657.118
924.5000	657.189
925.0000	657.214
925.5000	657.223
926.0000	657.248
926.5000	657.341
927.0000	657.416
927.5000	657.46
928.0000	657.567
928.5000	657.543
929.0000	657.602
929.5000	657.578
930.0000	657.517
930.5000	657.509
931.0000	657.518
931.5000	657.562
932.0000	657.648
932.5000	657.707
933.0000	657.743
933.5000	657.812
934.0000	657.768
934.5000	657.807
935.0000	657.752
935.5000	657.741
936.0000	657.805
936.5000	657.85
937.0000	657.94
937.5000	657.916
938.0000	657.883
938.5000	657.849
939.0000	657.876
939.5000	658.007
940.0000	658.107
940.5000	658.196
941.0000	658.215
941.5000	658.168
942.0000	658.199
942.5000	658.295
943.0000	658.255
943.5000	658.355
944.0000	658.287
944.5000	658.193
945.0000	658.303
945.5000	658.291
946.0000	658.405
946.5000	658.429
947.0000	658.423
947.5000	658.505
948.0000	658.595
948.5000	658.666
949.0000	658.718
949.5000	658.646
950.0000	658.652
950.5000	658.668
951.0000	658.686
951.5000	658.79
952.0000	658.774
952.5000	658.857
953.0000	659.022
953.5000	659.035
954.0000	659.042
954.5000	659.061
955.0000	658.996
955.5000	659
956.0000	659.08
956.5000	659.094
957.0000	659.141
957.5000	659.225
958.0000	659.206
958.5000	659.258
959.0000	659.186
959.5000	659.22
960.0000	659.269
960.5000	659.213
961.0000	659.274
961.5000	659.233
962.0000	659.29
962.5000	659.379
963.0000	659.372
963.5000	659.374
964.0000	659.39
964.5000	659.485
965.0000	659.619
965.5000	659.745
966.0000	659.799
966.5000	659.731
967.0000	659.75
967.5000	659.857
968.0000	659.995
968.5000	660.039
969.0000	660.029
969.5000	660.003
970.0000	659.877
970.5000	659.88
971.0000	659.918
971.5000	659.931
972.0000	659.982
972.5000	660.012
973.0000	660.008
973.5000	660.061
974.0000	660.082
974.5000	660.245
975.0000	660.275
975.5000	660.268
976.0000	660.338
976.5000	660.313
977.0000	660.469
977.5000	660.514
978.0000	660.557
978.5000	660.58
979.0000	660.543
979.5000	660.579
980.0000	660.577
980.5000	660.62
981.0000	660.644
981.5000	660.737
982.0000	660.721
982.5000	660.745
983.0000	660.807
983.5000	660.805
984.0000	660.852
984.5000	660.883
985.0000	660.793
985.5000	660.814
986.0000	660.953
986.5000	660.982
987.0000	661.096
987.5000	661.082
988.0000	660.977
988.5000	660.866
989.0000	660.863
989.5000	660.923
990.0000	661.059
990.5000	661.206
991.0000	661.31
991.5000	661.313
992.0000	661.279
992.5000	661.373
993.0000	661.377
993.5000	661.405
994.0000	661.539
994.5000	661.359
995.0000	661.456
995.5000	661.528
996.0000	661.509
996.5000	661.709
997.0000	661.705
997.5000	661.61
998.0000	661.656
998.5000	661.667
999.0000	661.619
999.5000	661.717
1000.0000	661.673
1000.5000	661.67
1001.0000	661.722
1001.5000	661.776
1002.0000	661.839
1002.5000	662.021
1003.0000	662.096
1003.5000	662.144
1004.0000	662.147
1004.5000	661.973
1005.0000	661.981
1005.5000	661.984
1006.0000	661.996
1006.5000	662.147
1007.0000	662.105
1007.5000	662.137
1008.0000	662.135
1008.5000	662.198
1009.0000	662.363
1009.5000	662.304
1010.0000	662.437
1010.5000	662.459
1011.0000	662.387
1011.5000	662.484
1012.0000	662.473
1012.5000	662.511
1013.0000	662.555
1013.5000	662.634
1014.0000	662.66
1014.5000	662.641
1015.0000	662.665
1015.5000	662.741
1016.0000	662.713
1016.5000	662.685
1017.0000	662.679
1017.5000	662.649
1018.0000	662.691
1018.5000	662.748
1019.0000	662.908
1019.5000	662.937
1020.0000	662.982
1020.5000	663.029
1021.0000	663.014
1021.5000	662.99
1022.0000	663.029
1022.5000	662.974
1023.0000	662.988
1023.5000	663.074
1024.0000	663.139
1024.5000	663.283
1025.0000	663.247
1025.5000	663.283
1026.0000	663.275
1026.5000	663.307
1027.0000	663.445
1027.5000	663.442
1028.0000	663.431
1028.5000	663.549
1029.0000	663.484
1029.5000	663.432
1030.0000	663.488
1030.5000	663.312
1031.0000	663.39
1031.5000	663.518
1032.0000	663.548
1032.5000	663.605
1033.0000	663.589
1033.5000	663.604
1034.0000	663.623
1034.5000	663.611
1035.0000	663.667
1035.5000	663.666
1036.0000	663.669
1036.5000	663.811
1037.0000	663.877
1037.5000	663.956
1038.0000	664.125
1038.5000	664.204
1039.0000	664.18
1039.5000	664.13
1040.0000	664.096
1040.5000	664.027
1041.0000	663.936
1041.5000	664.071
1042.0000	664.002
1042.5000	664.076
1043.0000	664.179
1043.5000	664.19
1044.0000	664.25
1044.5000	664.221
1045.0000	664.327
1045.5000	664.324
1046.0000	664.366
1046.5000	664.404
1047.0000	664.463
1047.5000	664.379
1048.0000	664.456
1048.5000	664.59
1049.0000	664.578
1049.5000	664.716
1050.0000	664.76
1050.5000	664.72
1051.0000	664.751
1051.5000	664.799
1052.0000	664.854
1052.5000	664.981
1053.0000	664.955
1053.5000	664.936
1054.0000	664.945
1054.5000	664.839
1055.0000	664.875
1055.5000	665.026
1056.0000	665.045
1056.5000	665.126
1057.0000	665.236
1057.5000	665.191
1058.0000	665.244
1058.5000	665.282
1059.0000	665.288
1059.5000	665.388
1060.0000	665.349
1060.5000	665.34
1061.0000	665.335
1061.5000	665.275
1062.0000	665.413
1062.5000	665.5
1063.0000	665.485
1063.5000	665.563
1064.0000	665.554
1064.5000	665.655
1065.0000	665.711
1065.5000	665.732
1066.0000	665.763
1066.5000	665.634
1067.0000	665.692
1067.5000	665.689
1068.0000	665.674
1068.5000	665.669
1069.0000	665.735
1069.5000	665.8
1070.0000	665.825
1070.5000	665.941
1071.0000	665.927
1071.5000	665.961
1072.0000	665.976
1072.5000	666.02
1073.0000	666
1073.5000	666.041
1074.0000	666.089
1074.5000	666.132
1075.0000	666.157
1075.5000	666.139
1076.0000	666.184
1076.5000	666.206
1077.0000	666.241
1077.5000	666.247
1078.0000	666.176
1078.5000	666.107
1079.0000	666.237
1079.5000	666.292
1080.0000	666.268
1080.5000	666.357
1081.0000	666.359
1081.5000	666.366
1082.0000	666.518
1082.5000	666.541
1083.0000	666.48
1083.5000	666.476
1084.0000	666.429
1084.5000	666.48
1085.0000	666.632
1085.5000	666.704
1086.0000	666.833
1086.5000	666.847
1087.0000	666.795
1087.5000	666.771
1088.0000	666.802
1088.5000	666.817
1089.0000	666.857
1089.5000	667.01
1090.0000	666.96
1090.5000	667.019
1091.0000	666.986
1091.5000	666.885
1092.0000	667.034
1092.5000	667.085
1093.0000	667.163
1093.5000	667.152
1094.0000	667.13
1094.5000	667.1
1095.0000	667.175
1095.5000	667.331
1096.0000	667.356
1096.5000	667.358
1097.0000	667.42
1097.5000	667.344
1098.0000	667.31
1098.5000	667.259
1099.0000	667.192
1099.5000	667.249
1100.0000	667.346
1100.5000	667.442
1101.0000	667.487
1101.5000	667.673
1102.0000	667.694
1102.5000	667.706
1103.0000	667.735
1103.5000	667.59
1104.0000	667.612
1104.5000	667.617
1105.0000	667.68
1105.5000	667.704
1106.0000	667.78
1106.5000	667.871
1107.0000	667.865
1107.5000	667.89
1108.0000	667.943
1108.5000	667.956
1109.0000	668.016
1109.5000	668.049
1110.0000	667.985
1110.5000	668.073
1111.0000	668.057
1111.5000	668.063
1112.0000	667.998
1112.5000	667.963
1113.0000	667.986
1113.5000	668.115
1114.0000	668.219
1114.5000	668.217
1115.0000	668.254
1115.5000	668.237
1116.0000	668.283
1116.5000	668.276
1117.0000	668.26
1117.5000	668.187
1118.0000	668.226
1118.5000	668.218
1119.0000	668.25
1119.5000	668.331
1120.0000	668.324
1120.5000	668.383
1121.0000	668.377
1121.5000	668.328
1122.0000	668.357
1122.5000	668.409
1123.0000	668.517
1123.5000	668.62
1124.0000	668.659
1124.5000	668.663
1125.0000	668.59
1125.5000	668.595
1126.0000	668.603
1126.5000	668.634
1127.0000	668.774
1127.5000	668.871
1128.0000	668.879
1128.5000	669.007
1129.0000	668.91
1129.5000	668.803
1130.0000	668.758
1130.5000	668.766
1131.0000	668.917
1131.5000	669.015
1132.0000	669.053
1132.5000	669.06
1133.0000	668.997
1133.5000	668.958
1134.0000	668.965
1134.5000	668.936
1135.0000	668.856
1135.5000	668.981
1136.0000	669.138
1136.5000	669.129
1137.0000	669.231
1137.5000	669.186
1138.0000	669.097
1138.5000	669.205
1139.0000	669.179
1139.5000	669.282
1140.0000	669.317
1140.5000	669.34
1141.0000	669.384
1141.5000	669.452
1142.0000	669.443
1142.5000	669.489
1143.0000	669.621
1143.5000	669.558
1144.0000	669.609
1144.5000	669.596
1145.0000	669.608
1145.5000	669.65
1146.0000	669.744
1146.5000	669.807
1147.0000	669.776
1147.5000	669.763
1148.0000	669.76
1148.5000	669.75
1149.0000	669.724
1149.5000	669.797
1150.0000	669.774
1150.5000	669.816
1151.0000	669.899
1151.5000	669.828
1152.0000	669.87
1152.5000	669.835
1153.0000	669.881
1153.5000	669.895
1154.0000	669.894
1154.5000	669.968
1155.0000	669.974
1155.5000	670.03
1156.0000	670.115
1156.5000	670.098
1157.0000	670.066
1157.5000	670.109
1158.0000	670.14
1158.5000	670.129
1159.0000	670.16
1159.5000	670.16
1160.0000	670.028
1160.5000	670.067
1161.0000	670.154
1161.5000	670.206
1162.0000	670.29
1162.5000	670.319
1163.0000	670.278
1163.5000	670.259
1164.0000	670.31
1164.5000	670.283
1165.0000	670.279
1165.5000	670.348
1166.0000	670.319
1166.5000	670.315
1167.0000	670.338
1167.5000	670.362
1168.0000	670.384
1168.5000	670.471
1169.0000	670.414
1169.5000	670.321
1170.0000	670.359
1170.5000	670.324
1171.0000	670.402
1171.5000	670.467
1172.0000	670.493
1172.5000	670.414
1173.0000	670.455
1173.5000	670.435
1174.0000	670.374
1174.5000	670.548
1175.0000	670.569
1175.5000	670.614
1176.0000	670.653
1176.5000	670.624
1177.0000	670.57
1177.5000	670.599
1178.0000	670.679
1178.5000	670.601
1179.0000	670.632
1179.5000	670.577
1180.0000	670.509
1180.5000	670.641
1181.0000	670.68
1181.5000	670.771
1182.0000	670.989
1182.5000	670.95
1183.0000	670.902
1183.5000	670.913
1184.0000	670.781
1184.5000	670.831
1185.0000	670.978
1185.5000	670.928
1186.0000	670.859
1186.5000	670.905
1187.0000	670.882
1187.5000	670.968
1188.0000	671.063
1188.5000	671.019
1189.0000	671.081
1189.5000	671.076
1190.0000	671.074
1190.5000	671.178
1191.0000	671.157
1191.5000	671.122
1192.0000	671.244
1192.5000	671.213
1193.0000	671.26
1193.5000	671.427
1194.0000	671.385
1194.5000	671.366
1195.0000	671.331
1195.5000	671.294
1196.0000	671.265
1196.5000	671.371
1197.0000	671.389
1197.5000	671.316
1198.0000	671.335
1198.5000	671.216
1199.0000	671.217
1199.5000	671.325
1200.0000	671.412
1200.5000	671.461
1201.0000	671.572
1201.5000	671.566
1202.0000	671.529
1202.5000	671.581
1203.0000	671.487
1203.5000	671.465
1204.0000	671.466
1204.5000	671.5
1205.0000	671.57
1205.5000	671.685
1206.0000	671.629
1206.5000	671.601
1207.0000	671.683
1207.5000	671.685
1208.0000	671.835
1208.5000	671.831
1209.0000	671.913
1209.5000	671.922
1210.0000	671.949
1210.5000	672.011
1211.0000	671.87
1211.5000	671.847
1212.0000	671.815
1212.5000	671.842
1213.0000	671.946
1213.5000	671.975
1214.0000	671.93
1214.5000	671.903
1215.0000	671.87
1215.5000	671.976
1216.0000	672.051
1216.5000	672.153
1217.0000	672.157
1217.5000	672.046
1218.0000	672.129
1218.5000	672.054
1219.0000	672.149
1219.5000	672.199
1220.0000	672.221
1220.5000	672.266
1221.0000	672.15
1221.5000	672.202
1222.0000	672.18
1222.5000	672.216
1223.0000	672.246
1223.5000	672.215
1224.0000	672.257
1224.5000	672.219
1225.0000	672.228
1225.5000	672.246
1226.0000	672.169
1226.5000	672.27
1227.0000	672.255
1227.5000	672.186
1228.0000	672.237
1228.5000	672.255
1229.0000	672.299
1229.5000	672.366
1230.0000	672.417
1230.5000	672.411
1231.0000	672.524
1231.5000	672.55
1232.0000	672.476
1232.5000	672.484
1233.0000	672.484
1233.5000	672.659
1234.0000	672.746
1234.5000	672.774
1235.0000	672.726
1235.5000	672.675
1236.0000	672.679
1236.5000	672.67
1237.0000	672.696
1237.5000	672.592
1238.0000	672.647
1238.5000	672.618
1239.0000	672.666
1239.5000	672.694
1240.0000	672.512
1240.5000	672.593
1241.0000	672.58
1241.5000	672.701
1242.0000	672.844
1242.5000	672.796
1243.0000	672.822
1243.5000	672.668
1244.0000	672.645
1244.5000	672.697
1245.0000	672.635
1245.5000	672.649
1246.0000	672.62
1246.5000	672.612
1247.0000	672.678
1247.5000	672.813
1248.0000	672.822
1248.5000	672.845
1249.0000	672.854
1249.5000	672.835
1250.0000	672.88
1250.5000	672.881
1251.0000	672.964
1251.5000	672.975
1252.0000	673.013
1252.5000	673.029
1253.0000	673.001
1253.5000	672.914
1254.0000	672.848
1254.5000	672.86
1255.0000	672.866
1255.5000	672.951
1256.0000	673.1
1256.5000	673.184
1257.0000	673.188
1257.5000	673.185
1258.0000	673.197
1258.5000	673.174
1259.0000	673.207
1259.5000	673.322
1260.0000	673.39
1260.5000	673.372
1261.0000	673.369
1261.5000	673.308
1262.0000	673.164
1262.5000	673.24
1263.0000	673.35
1263.5000	673.369
1264.0000	673.418
1264.5000	673.332
1265.0000	673.189
1265.5000	673.085
1266.0000	673.056
1266.5000	673.18
1267.0000	673.295
1267.5000	673.486
1268.0000	673.545
1268.5000	673.496
1269.0000	673.471
1269.5000	673.415
1270.0000	673.494
1270.5000	673.486
1271.0000	673.533
1271.5000	673.507
1272.0000	673.435
1272.5000	673.513
1273.0000	673.422
1273.5000	673.495
1274.0000	673.612
1274.5000	673.656
1275.0000	673.759
1275.5000	673.843
1276.0000	673.886
1276.5000	673.818
1277.0000	673.83
1277.5000	673.813
1278.0000	673.758
1278.5000	673.848
1279.0000	673.868
1279.5000	673.743
1280.0000	673.751
1280.5000	673.694
1281.0000	673.59
1281.5000	673.728
1282.0000	673.628
1282.5000	673.7
1283.0000	673.704
1283.5000	673.688
1284.0000	673.755
1284.5000	673.745
1285.0000	673.861
1285.5000	673.77
1286.0000	673.805
1286.5000	673.768
1287.0000	673.711
1287.5000	673.893
1288.0000	673.869
1288.5000	673.867
1289.0000	673.865
1289.5000	673.776
1290.0000	673.786
1290.5000	673.866
1291.0000	673.882
1291.5000	673.807
1292.0000	673.895
1292.5000	673.915
1293.0000	674.028
1293.5000	674.26
1294.0000	674.344
1294.5000	674.431
1295.0000	674.411
1295.5000	674.379
1296.0000	674.359
1296.5000	674.275
1297.0000	674.322
1297.5000	674.246
1298.0000	674.133
1298.5000	674.091
1299.0000	674.077
1299.5000	674.216
1300.0000	674.369
1300.5000	674.376
1301.0000	674.39
1301.5000	674.363
1302.0000	674.239
1302.5000	674.306
1303.0000	674.272
1303.5000	674.286
1304.0000	674.436
1304.5000	674.421
1305.0000	674.507
1305.5000	674.499
1306.0000	674.426
1306.5000	674.43
1307.0000	674.45
1307.5000	674.395
1308.0000	674.476
1308.5000	674.512
1309.0000	674.463
1309.5000	674.582
1310.0000	674.472
1310.5000	674.555
1311.0000	674.675
1311.5000	674.752
1312.0000	674.885
1312.5000	674.873
1313.0000	674.813
1313.5000	674.666
1314.0000	674.663
1314.5000	674.584
1315.0000	674.63
1315.5000	674.703
1316.0000	674.72
1316.5000	674.765
1317.0000	674.784
1317.5000	674.813
1318.0000	674.804
1318.5000	674.875
1319.0000	674.902
1319.5000	674.827
1320.0000	674.885
1320.5000	674.9
1321.0000	674.933
1321.5000	674.975
1322.0000	674.891
1322.5000	674.881
1323.0000	674.925
1323.5000	675.037
1324.0000	675.093
1324.5000	675.132
1325.0000	675.098
1325.5000	675.082
1326.0000	675.117
1326.5000	675.217
1327.0000	675.202
1327.5000	675.161
1328.0000	675.15
1328.5000	674.94
1329.0000	674.927
1329.5000	674.938
1330.0000	675.017
1330.5000	675.153
1331.0000	675.257
1331.5000	675.225
1332.0000	675.192
1332.5000	675.187
1333.0000	675.145
1333.5000	675.243
1334.0000	675.265
1334.5000	675.216
1335.0000	675.24
1335.5000	675.3
1336.0000	675.322
1336.5000	675.42
1337.0000	675.384
1337.5000	675.443
1338.0000	675.444
1338.5000	675.561
1339.0000	675.589
1339.5000	675.576
1340.0000	675.615
1340.5000	675.498
1341.0000	675.531
1341.5000	675.505
1342.0000	675.462
1342.5000	675.536
1343.0000	675.517
1343.5000	675.475
1344.0000	675.486
1344.5000	675.445
1345.0000	675.521
1345.5000	675.567
1346.0000	675.624
1346.5000	675.705
1347.0000	675.738
1347.5000	675.735
1348.0000	675.844
1348.5000	675.777
1349.0000	675.792
1349.5000	675.794
1350.0000	675.772
1350.5000	675.786
1351.0000	675.68
1351.5000	675.795
1352.0000	675.893
1352.5000	675.819
1353.0000	675.886
1353.5000	675.783
1354.0000	675.668
1354.5000	675.889
1355.0000	675.929
1355.5000	675.969
1356.0000	675.958
1356.5000	675.841
1357.0000	675.82
1357.5000	675.862
1358.0000	675.874
1358.5000	675.999
1359.0000	676.008
1359.5000	676.035
1360.0000	676.118
1360.5000	676.13
1361.0000	676.065
1361.5000	676.017
1362.0000	676.025
1362.5000	675.954
1363.0000	676.01
1363.5000	676.092
1364.0000	676.02
1364.5000	676.011
1365.0000	676.056
1365.5000	675.956
1366.0000	676.043
1366.5000	676.109
1367.0000	676.175
1367.5000	676.26
1368.0000	676.263
1368.5000	676.183
1369.0000	676.174
1369.5000	676.234
1370.0000	676.176
1370.5000	676.239
1371.0000	676.234
1371.5000	676.175
1372.0000	676.15
1372.5000	676.073
1373.0000	675.969
1373.5000	676.032
1374.0000	676.136
1374.5000	676.274
1375.0000	676.374
1375.5000	676.313
1376.0000	676.319
1376.5000	676.247
1377.0000	676.279
1377.5000	676.355
1378.0000	676.369
1378.5000	676.447
1379.0000	676.371
1379.5000	676.341
1380.0000	676.301
1380.5000	676.318
1381.0000	676.411
1381.5000	676.496
1382.0000	676.529
1382.5000	676.449
1383.0000	676.536
1383.5000	676.494
1384.0000	676.489
1384.5000	676.56
1385.0000	676.473
1385.5000	676.443
1386.0000	676.481
1386.5000	676.561
1387.0000	676.562
1387.5000	676.511
1388.0000	676.451
1388.5000	676.349
1389.0000	676.362
1389.5000	676.515
1390.0000	676.605
1390.5000	676.626
1391.0000	676.67
1391.5000	676.7
1392.0000	676.68
1392.5000	676.777
1393.0000	676.783
1393.5000	676.775
1394.0000	676.761
1394.5000	676.691
1395.0000	676.608
1395.5000	676.539
1396.0000	676.593
1396.5000	676.597
1397.0000	676.644
1397.5000	676.617
1398.0000	676.577
1398.5000	676.578
1399.0000	676.658
1399.5000	676.71
1400.0000	676.717
1400.5000	676.717
1401.0000	676.767
1401.5000	676.794
1402.0000	676.884
1402.5000	676.974
1403.0000	676.871
1403.5000	676.888
1404.0000	676.842
1404.5000	676.761
1405.0000	676.773
1405.5000	676.739
1406.0000	676.769
1406.5000	676.844
1407.0000	676.788
1407.5000	676.785
1408.0000	676.773
1408.5000	676.792
1409.0000	676.861
1409.5000	676.904
1410.0000	676.8
1410.5000	676.687
1411.0000	676.723
1411.5000	676.711
1412.0000	676.836
1412.5000	676.937
1413.0000	676.969
1413.5000	676.903
1414.0000	676.853
1414.5000	676.804
1415.0000	676.75
1415.5000	676.764
1416.0000	676.795
1416.5000	676.839
1417.0000	676.838
1417.5000	676.886
1418.0000	676.881
1418.5000	676.903
1419.0000	676.902
1419.5000	676.901
1420.0000	676.842
1420.5000	676.772
1421.0000	676.727
1421.5000	676.727
1422.0000	676.818
1422.5000	676.787
1423.0000	676.894
1423.5000	676.926
1424.0000	676.822
1424.5000	676.899
1425.0000	676.908
1425.5000	676.894
1426.0000	676.957
1426.5000	676.996
1427.0000	676.895
1427.5000	676.902
1428.0000	676.957
1428.5000	676.783
1429.0000	676.871
1429.5000	676.757
1430.0000	676.683
1430.5000	676.878
1431.0000	676.878
1431.5000	677
1432.0000	677.067
1432.5000	677.007
1433.0000	676.981
1433.5000	676.956
1434.0000	676.905
1434.5000	676.986
1435.0000	677.016
1435.5000	677.031
1436.0000	677.043
1436.5000	676.917
1437.0000	676.87
1437.5000	676.82
1438.0000	676.838
1438.5000	676.906
1439.0000	676.948
1439.5000	676.943
1440.0000	676.996
1440.5000	677.009
1441.0000	676.963
1441.5000	677.11
1442.0000	677.145
1442.5000	677.085
1443.0000	677.039
1443.5000	676.972
1444.0000	676.912
1444.5000	676.908
1445.0000	677.003
1445.5000	677.011
1446.0000	677.022
1446.5000	677.12
1447.0000	677.169
1447.5000	677.147
1448.0000	677.142
1448.5000	677.114
1449.0000	677.117
1449.5000	677.066
1450.0000	677.082
1450.5000	676.918
1451.0000	676.808
1451.5000	676.896
1452.0000	676.81
1452.5000	677.006
1453.0000	677.039
1453.5000	677.036
1454.0000	677.133
1454.5000	677.095
1455.0000	677.123
1455.5000	677.069
1456.0000	677.047
1456.5000	677.066
1457.0000	677.043
1457.5000	677.026
1458.0000	677.025
1458.5000	676.962
1459.0000	676.969
1459.5000	676.924
1460.0000	676.943
1460.5000	676.931
1461.0000	676.945
1461.5000	677.006
1462.0000	676.974
1462.5000	676.98
1463.0000	676.965
1463.5000	677.013
1464.0000	677.004
1464.5000	677.011
1465.0000	676.984
1465.5000	676.997
1466.0000	677.021
1466.5000	677.169
1467.0000	677.184
1467.5000	677.185
1468.0000	677.234
1468.5000	677.172
1469.0000	677.18
1469.5000	677.225
1470.0000	677.186
1470.5000	677.136
1471.0000	677.113
1471.5000	677.023
1472.0000	677.008
1472.5000	677.053
1473.0000	677.218
1473.5000	677.176
1474.0000	677.217
1474.5000	677.25
1475.0000	677.11
1475.5000	677.188
1476.0000	677.208
1476.5000	677.2
1477.0000	677.297
1477.5000	677.299
1478.0000	677.325
1478.5000	677.31
1479.0000	677.173
1479.5000	677.229
1480.0000	677.185
1480.5000	677.112
1481.0000	677.175
1481.5000	677.109
1482.0000	677.053
1482.5000	677.115
1483.0000	677.237
1483.5000	677.378
1484.0000	677.472
1484.5000	677.506
1485.0000	677.401
1485.5000	677.28
1486.0000	677.386
1486.5000	677.311
1487.0000	677.376
1487.5000	677.375
1488.0000	677.289
1488.5000	677.334
1489.0000	677.345
1489.5000	677.44
1490.0000	677.413
1490.5000	677.52
1491.0000	677.408
1491.5000	677.307
1492.0000	677.199
1492.5000	677.068
1493.0000	677.11
1493.5000	677.167
1494.0000	677.305
1494.5000	677.49
1495.0000	677.561
1495.5000	677.59
1496.0000	677.616
1496.5000	677.496
1497.0000	677.449
1497.5000	677.409
1498.0000	677.329
1498.5000	677.353
1499.0000	677.36
1499.5000	677.276
1500.0000	677.272
1500.5000	677.167
1501.0000	677.101
1501.5000	677.306
1502.0000	677.391
1502.5000	677.35
1503.0000	677.494
1503.5000	677.413
1504.0000	677.378
1504.5000	677.523
1505.0000	677.52
1505.5000	677.519
1506.0000	677.523
1506.5000	677.645
1507.0000	677.689
1507.5000	677.73
1508.0000	677.69
1508.5000	677.602
1509.0000	677.396
1509.5000	677.259
1510.0000	677.259
1510.5000	677.178
1511.0000	677.282
1511.5000	677.285
1512.0000	677.332
1512.5000	677.402
1513.0000	677.365
1513.5000	677.451
1514.0000	677.472
1514.5000	677.484
1515.0000	677.486
1515.5000	677.497
1516.0000	677.45
1516.5000	677.334
1517.0000	677.411
1517.5000	677.452
1518.0000	677.452
1518.5000	677.448
1519.0000	677.316
1519.5000	677.258
1520.0000	677.273
1520.5000	677.403
1521.0000	677.559
1521.5000	677.511
1522.0000	677.548
1522.5000	677.502
1523.0000	677.438
1523.5000	677.55
1524.0000	677.58
1524.5000	677.548
1525.0000	677.649
1525.5000	677.628
1526.0000	677.66
1526.5000	677.696
1527.0000	677.638
1527.5000	677.522
1528.0000	677.491
1528.5000	677.484
1529.0000	677.441
1529.5000	677.549
1530.0000	677.446
1530.5000	677.52
1531.0000	677.561
1531.5000	677.498
1532.0000	677.554
1532.5000	677.413
1533.0000	677.49
1533.5000	677.498
1534.0000	677.504
1534.5000	677.59
1535.0000	677.471
1535.5000	677.492
1536.0000	677.546
1536.5000	677.455
1537.0000	677.443
1537.5000	677.386
1538.0000	677.339
1538.5000	677.306
1539.0000	677.354
1539.5000	677.412
1540.0000	677.395
1540.5000	677.457
1541.0000	677.376
1541.5000	677.429
1542.0000	677.427
1542.5000	677.51
1543.0000	677.592
1543.5000	677.578
1544.0000	677.646
1544.5000	677.527
1545.0000	677.492
1545.5000	677.469
1546.0000	677.392
1546.5000	677.53
1547.0000	677.6
1547.5000	677.645
1548.0000	677.692
1548.5000	677.695
1549.0000	677.715
1549.5000	677.609
1550.0000	677.663
1550.5000	677.618
1551.0000	677.521
1551.5000	677.579
1552.0000	677.505
1552.5000	677.571
1553.0000	677.585
1553.5000	677.588
1554.0000	677.622
1554.5000	677.5
1555.0000	677.589
1555.5000	677.588
1556.0000	677.615
1556.5000	677.688
1557.0000	677.663
1557.5000	677.684
1558.0000	677.664
1558.5000	677.738
1559.0000	677.644
1559.5000	677.549
1560.0000	677.489
1560.5000	677.319
1561.0000	677.369
1561.5000	677.434
1562.0000	677.511
1562.5000	677.665
1563.0000	677.615
1563.5000	677.575
1564.0000	677.542
1564.5000	677.404
1565.0000	677.479
1565.5000	677.553
1566.0000	677.604
1566.5000	677.676
1567.0000	677.683
1567.5000	677.745
1568.0000	677.676
1568.5000	677.727
1569.0000	677.777
1569.5000	677.642
1570.0000	677.609
1570.5000	677.584
1571.0000	677.57
1571.5000	677.66
1572.0000	677.7
1572.5000	677.672
1573.0000	677.6
1573.5000	677.644
1574.0000	677.605
1574.5000	677.598
1575.0000	677.618
1575.5000	677.518
1576.0000	677.6
1576.5000	677.606
1577.0000	677.686
1577.5000	677.768
1578.0000	677.694
1578.5000	677.856
1579.0000	677.821
1579.5000	677.85
1580.0000	677.831
1580.5000	677.693
1581.0000	677.716
1581.5000	677.643
1582.0000	677.699
1582.5000	677.651
1583.0000	677.607
1583.5000	677.581
1584.0000	677.53
1584.5000	677.448
1585.0000	677.454
1585.5000	677.531
1586.0000	677.609
1586.5000	677.7
1587.0000	677.721
1587.5000	677.639
1588.0000	677.678
1588.5000	677.78
1589.0000	677.758
1589.5000	677.797
1590.0000	677.795
1590.5000	677.716
1591.0000	677.705
1591.5000	677.631
1592.0000	677.583
1592.5000	677.591
1593.0000	677.618
1593.5000	677.623
1594.0000	677.527
1594.5000	677.526
1595.0000	677.531
1595.5000	677.566
1596.0000	677.562
